index,ecg
0,-0.11252183
1,-2.8272038
2,-3.7738969
3,-4.3497511
4,-4.376041
5,-3.4749863
6,-2.1814082
7,-1.8182865
8,-1.2505219
9,-0.47749208
10,-0.36380791
11,-0.49195659
12,-0.42185509
13,-0.30920086
14,-0.4959387
15,-0.34211867
16,-0.35533627
17,-0.36791303
18,-0.31650279
19,-0.41237405
20,-0.47167181
21,-0.41345783
22,-0.36461703
23,-0.44929829
24,-0.47141866
25,-0.42477658
26,-0.46251673
27,-0.55247236
28,-0.47537519
29,-0.6942
30,-0.7018681
31,-0.59381178
32,-0.66068415
33,-0.71383066
34,-0.76980688
35,-0.67228161
36,-0.65367605
37,-0.63940562
38,-0.55930228
39,-0.59167032
40,-0.49322332
41,-0.46305183
42,-0.30164382
43,-0.23273401
44,-0.12505488
45,-0.15394314
46,-0.024357404
47,-0.065608758
48,0.034999258
49,0.061935219
50,0.07119542
51,0.12392505
52,0.10312371
53,0.22522849
54,0.12868305
55,0.30248315
56,0.25727621
57,0.19635161
58,0.17938297
59,0.24472863
60,0.34121687
61,0.32820441
62,0.40604169
63,0.44660507
64,0.42406823
65,0.48151204
66,0.4778438
67,0.62408259
68,0.57458456
69,0.59801319
70,0.5645919
71,0.607979
72,0.62063457
73,0.65625291
74,0.68474806
75,0.69427284
76,0.66558377
77,0.57579577
78,0.63813479
79,0.61491695
80,0.56908343
81,0.46857572
82,0.44281777
83,0.46827436
84,0.43249295
85,0.40795792
86,0.41862256
87,0.36253075
88,0.41095901
89,0.47166633
90,0.37216676
91,0.33787543
92,0.22140511
93,0.27399747
94,0.29866408
95,0.26356357
96,0.34256352
97,0.41950529
98,0.58660736
99,0.86062387
100,1.1733446
101,1.2581791
102,1.4337887
103,1.7005334
104,1.9990431
105,2.1253411
106,1.9932907
107,1.9322463
108,1.7974367
109,1.5222839
110,1.2511679
111,0.99873034
112,0.48372242
113,0.023132292
114,-0.19491383
115,-0.22091729
116,-0.24373668
117,-0.25469462
118,-0.29113555
119,-0.25649034
120,-0.22787425
121,-0.32242276
122,-0.28928586
123,-0.31816951
124,-0.36365359
125,-0.39345584
126,-0.26641886
127,-0.25682316
128,-0.28869399
129,-0.16233755
130,0.16034772
131,0.79216787
132,0.93354122
133,0.79695779
134,0.57862066
135,0.2577399
136,0.22807718
137,0.12343082
138,0.92528624
139,0.19313742
140,-1.1008778
141,-3.9968398
142,-4.2858426
143,-4.5065789
144,-4.0223767
145,-3.2343676
146,-1.5661258
147,-0.99225766
148,-0.75467971
149,0.042321173
150,0.14895093
151,0.18352707
152,0.29487608
153,0.19023267
154,0.235575
155,0.25348712
156,0.2217424
157,0.050233259
158,0.17804214
159,0.13956318
160,0.046794433
161,0.043007139
162,0.10654432
163,0.012654003
164,0.0039948539
165,0.045724179
166,-0.045999362
167,-0.072666959
168,-0.071077909
169,-0.15386649
170,-0.22725443
171,-0.2492697
172,-0.25348935
173,-0.33283516
174,-0.26432996
175,-0.34582525
176,-0.31078107
177,-0.33415978
178,-0.30617791
179,-0.17456252
180,-0.20616017
181,-0.22447967
182,-0.048683931
183,-0.019621159
184,0.094805186
185,0.11678639
186,0.18518592
187,0.23052577
188,0.13802707
189,0.24442554
190,0.27169477
191,0.25900331
192,0.26920166
193,0.12706463
194,0.20207339
195,0.25598343
196,0.15311526
197,0.21021583
198,0.19108187
199,0.19092702
200,0.21051006
201,0.20710764
202,0.20488835
203,0.20086474
204,0.34691963
205,0.3480019
206,0.25453726
207,0.33197465
208,0.3566903
209,0.34992982
210,0.43037963
211,0.46750163
212,0.48606309
213,0.4031884
214,0.47895569
215,0.39739177
216,0.46412003
217,0.45179539
218,0.36136121
219,0.3798309
220,0.34278528
221,0.39910656
222,0.3875084
223,0.25570346
224,0.28403408
225,0.28499257
226,0.25010809
227,0.17303626
228,0.14942257
229,0.141685
230,0.22226096
231,0.17284705
232,0.15077932
233,0.17656601
234,0.28094204
235,0.48993901
236,0.66088884
237,0.8931933
238,1.0269972
239,1.2023937
240,1.5574096
241,1.8084277
242,2.1643459
243,2.0707467
244,1.9036136
245,1.7644552
246,1.5077694
247,1.2934277
248,0.89456215
249,0.57801575
250,0.24434305
251,-0.28644345
252,-0.51588134
253,-0.73270694
254,-0.83246547
255,-0.80331806
256,-0.83625248
257,-0.77786456
258,-0.77475301
259,-0.73340394
260,-0.72138631
261,-0.83209517
262,-0.71198159
263,-0.7518673
264,-0.7577196
265,-0.85311967
266,-0.76698841
267,-0.68816064
268,-0.51992349
269,0.039406169
270,0.56032676
271,0.53835583
272,0.65688079
273,0.78748958
274,0.72404623
275,0.55578372
276,0.47633335
277,0.77381971
278,1.1196209
279,-1.4362499
280,-0.56708802
281,-2.5934502
282,-3.8742297
283,-4.5840949
284,-4.1874487
285,-3.1514617
286,-1.7429402
287,-1.4906585
288,-1.1835803
289,-0.39422869
290,-0.28289676
291,-0.35692576
292,-0.28729745
293,-0.3994889
294,-0.47324409
295,-0.37904758
296,-0.39903903
297,-0.17859449
298,-0.33952226
299,-0.49844722
300,-0.33725108
301,-0.42547978
302,-0.42395228
303,-0.46317045
304,-0.49325315
305,-0.54974899
306,-0.52983109
307,-0.53093478
308,-0.5023649
309,-0.41736768
310,-0.52634573
311,-0.47100496
312,-0.67678428
313,-0.89861193
314,-0.61057104
315,-0.5301643
316,-0.76567438
317,-0.58193724
318,-0.53784761
319,-0.55638598
320,-0.43802347
321,-0.43624802
322,-0.40011375
323,-0.13498651
324,-0.23934677
325,-0.12024439
326,-0.0019714041
327,0.28500048
328,0.31564573
329,0.10736401
330,0.10952148
331,0.15807843
332,0.29189779
333,0.2612945
334,0.18840714
335,0.14065136
336,0.26336542
337,0.28720706
338,0.31431725
339,0.17794238
340,0.13829008
341,0.32106868
342,0.45816774
343,0.25191615
344,0.26135293
345,0.27748753
346,0.29879325
347,0.45907535
348,0.41914662
349,0.52050892
350,0.53776119
351,0.60321071
352,0.47563399
353,0.52169287
354,0.73524831
355,0.72954106
356,0.71852334
357,0.49843316
358,0.54544098
359,0.60482668
360,0.52129639
361,0.39438062
362,0.40502023
363,0.59756305
364,0.53113004
365,0.3776509
366,0.46770093
367,0.45756933
368,0.34111609
369,0.40791318
370,0.45912699
371,0.40393661
372,0.2981912
373,0.46110053
374,0.6646591
375,0.58775722
376,0.70132474
377,0.91720459
378,1.2479873
379,1.5055679
380,1.6401054
381,1.8109878
382,2.1853978
383,2.2629849
384,2.0529202
385,1.890488
386,1.793033
387,1.5647844
388,1.2346189
389,0.90030201
390,0.55195714
391,0.25822163
392,-0.128587
393,-0.092585287
394,-0.16860627
395,-0.4959888
396,-0.39503448
397,-0.32823831
398,-0.44813804
399,-0.26823009
400,-0.45641485
401,-0.35786694
402,-0.31750833
403,-0.43411223
404,-0.54920348
405,-0.32461549
406,-0.26808235
407,-0.22038421
408,-0.11742905
409,0.61405916
410,1.2848254
411,0.88607336
412,0.5314524
413,0.31137684
414,-0.021918959
415,-0.71368344
416,-0.53219671
417,0.32109663
418,0.90422673
419,-0.42179659
420,0.49047253
421,-1.9144071
422,-3.6163638
423,-4.3188235
424,-4.2680158
425,-3.8811104
426,-2.9932802
427,-1.6711314
428,-1.3338845
429,-0.96562916
430,-0.18331859
431,-0.10165662
432,-0.27387437
433,-0.12781761
434,-0.19598345
435,-0.21352292
436,-0.17647269
437,-0.1569316
438,-0.14917231
439,-0.18150997
440,-0.18007406
441,-0.24615133
442,-0.27425986
443,-0.14095962
444,-0.27744877
445,-0.38254906
446,-0.31193709
447,-0.36009264
448,-0.40596818
449,-0.57143343
450,-0.52410561
451,-0.53788646
452,-0.60677754
453,-0.66144617
454,-0.68337478
455,-0.74668256
456,-0.63566206
457,-0.62523095
458,-0.54009375
459,-0.67499495
460,-0.65394896
461,-0.56691641
462,-0.52404493
463,-0.41471114
464,-0.38778691
465,-0.28443735
466,-0.07274462
467,-0.16012546
468,-0.092159535
469,0.067164899
470,0.081472141
471,0.056181748
472,0.024692229
473,0.07439508
474,0.15288791
475,0.091033246
476,0.11015952
477,0.11727766
478,0.11383231
479,0.14180793
480,0.27149224
481,0.24974277
482,0.19760783
483,0.24393891
484,0.38653837
485,0.30001951
486,0.30980097
487,0.34466985
488,0.38970986
489,0.44285015
490,0.43342958
491,0.54871006
492,0.52503659
493,0.52197499
494,0.62395373
495,0.5491593
496,0.6691888
497,0.62992818
498,0.53957342
499,0.59928297
500,0.49785318
501,0.63809316
502,0.61173698
503,0.49190824
504,0.57394864
505,0.51624467
506,0.57262973
507,0.48459064
508,0.37438176
509,0.46177251
510,0.41466066
511,0.37163879
512,0.44516957
513,0.48416962
514,0.55606057
515,0.65872426
516,0.86115788
517,1.0163973
518,1.135606
519,1.216973
520,1.5530785
521,1.772155
522,2.0007688
523,1.9250032
524,1.898426
525,1.7209525
526,1.5017111
527,1.4224917
528,1.0232255
529,0.77634127
530,0.50442626
531,0.056381865
532,-0.23316061
533,-0.40638829
534,-0.327528
535,-0.460868
536,-0.40253556
537,-0.34575164
538,-0.35420649
539,-0.43995884
540,-0.42532593
541,-0.43978873
542,-0.45183526
543,-0.39592642
544,-0.44876235
545,-0.39178907
546,-0.37630746
547,-0.46106907
548,-0.25352442
549,0.21300588
550,0.4911732
551,0.35081636
552,0.49911056
553,0.60034499
554,0.8420694
555,0.95207354
556,0.99013318
557,1.0867984
558,1.403011
559,-0.38356426
560,0.80023202
561,-0.87425189
562,-2.3847613
563,-3.9732924
564,-4.3382241
565,-3.8024222
566,-2.5345096
567,-1.7834233
568,-1.5944504
569,-0.75319899
570,-0.29810663
571,-0.42892797
572,-0.49135079
573,-0.36130424
574,-0.33929554
575,-0.32495154
576,-0.29011333
577,-0.36305106
578,-0.52568383
579,-0.59742301
580,-0.57552317
581,-0.56750306
582,-0.50455484
583,-0.61840616
584,-0.68281354
585,-0.74384873
586,-0.81558784
587,-0.82690193
588,-0.78237433
589,-0.92946196
590,-0.99967167
591,-1.0609695
592,-1.0078773
593,-1.0287349
594,-1.1226293
595,-1.0286499
596,-1.0465146
597,-1.0633724
598,-1.1224228
599,-0.98324201
600,-0.85586525
601,-0.791266
602,-0.58875425
603,-0.51830558
604,-0.39729838
605,-0.35433285
606,-0.20742492
607,-0.088266017
608,-0.16873361
609,-0.067592085
610,-0.032772281
611,0.071899471
612,0.081485179
613,0.067225257
614,0.13271969
615,0.070240933
616,0.10043175
617,0.15041753
618,0.10988654
619,0.14886026
620,0.20874762
621,0.22823622
622,0.27366422
623,0.29952441
624,0.32706231
625,0.24231412
626,0.38610522
627,0.41908722
628,0.43971785
629,0.48895381
630,0.54171511
631,0.57386922
632,0.63355476
633,0.41167103
634,0.44091729
635,0.5887054
636,0.53086502
637,0.55896452
638,0.60687423
639,0.61472869
640,0.53777156
641,0.59929423
642,0.64046303
643,0.56839906
644,0.54471048
645,0.55795891
646,0.53776149
647,0.47229245
648,0.46659561
649,0.63441689
650,0.42517487
651,0.42077721
652,0.44052297
653,0.36102802
654,0.35929943
655,0.32136632
656,0.42132549
657,0.50512195
658,0.67748866
659,0.90869284
660,0.98223031
661,1.1553635
662,1.3362539
663,1.6275344
664,1.7175939
665,1.6964865
666,1.7416856
667,1.674078
668,1.5469278
669,1.3317385
670,1.1101682
671,0.92221037
672,0.52177665
673,0.15485176
674,-0.1238607
675,-0.20299778
676,-0.24795602
677,-0.21912177
678,-0.2146952
679,-0.31921472
680,-0.19859713
681,-0.15161786
682,-0.12959259
683,-0.074938934
684,-0.19680704
685,-0.17479482
686,-0.20883265
687,-0.21075375
688,-0.10048537
689,0.19744621
690,0.966606
691,1.1488838
692,0.95843425
693,1.0590254
694,1.3716823
695,1.2773918
696,0.96030393
697,0.97101956
698,1.6143924
699,1.4214563
700,-1.5076736
701,-3.57455
702,-4.4780109
703,-4.4082752
704,-3.3212415
705,-2.1051715
706,-1.4810482
707,-1.3013622
708,-0.4982396
709,-0.2869283
710,-0.39003094
711,-0.26384158
712,-0.31802419
713,-0.18591558
714,-0.26978996
715,-0.32224541
716,-0.30925306
717,-0.39110135
718,-0.3032594
719,-0.31929186
720,-0.40791759
721,-0.42157915
722,-0.48138035
723,-0.44751848
724,-0.5248504
725,-0.46911847
726,-0.58260667
727,-0.67903585
728,-0.65205179
729,-0.84685281
730,-0.76668159
731,-0.73514832
732,-0.78846458
733,-0.85127649
734,-0.83700984
735,-0.84350094
736,-0.82704168
737,-0.87806084
738,-0.75509458
739,-0.80992101
740,-0.67941539
741,-0.58341796
742,-0.45742032
743,-0.37778498
744,-0.36062856
745,-0.23172648
746,-0.2368416
747,-0.047710649
748,-0.052632422
749,-0.074354922
750,-0.094408878
751,-0.082684152
752,0.0067543086
753,-0.082925194
754,-0.061498973
755,0.021666852
756,-0.04082262
757,0.038088286
758,0.04111276
759,-0.10716567
760,0.034701332
761,0.085703804
762,0.12185632
763,0.08889131
764,0.18567768
765,0.22990726
766,0.18320411
767,0.28684534
768,0.27956195
769,0.4185915
770,0.39460935
771,0.42764032
772,0.44484387
773,0.46829876
774,0.51542459
775,0.63629527
776,0.63325173
777,0.64466005
778,0.62754545
779,0.53004067
780,0.4928233
781,0.47920823
782,0.41335998
783,0.47562381
784,0.43649354
785,0.40684174
786,0.4433003
787,0.31768387
788,0.3613207
789,0.3610005
790,0.24142577
791,0.318115
792,0.3251511
793,0.47830471
794,0.47607975
795,0.5320627
796,0.79548456
797,0.9451694
798,1.104937
799,1.290653
800,1.4892172
801,1.7553005
802,1.9609181
803,2.0424366
804,1.902829
805,1.9028747
806,1.7580745
807,1.425782
808,1.2102201
809,0.92839739
810,0.64126402
811,0.17552516
812,-0.10691014
813,-0.13204268
814,-0.1658357
815,-0.098570541
816,-0.26602195
817,-0.2372939
818,-0.13768778
819,-0.10067464
820,-0.10749888
821,-0.2103621
822,-0.13010391
823,-0.10763115
824,-0.16114587
825,-0.10131627
826,-0.095255496
827,-0.069172156
828,0.15487779
829,0.69565622
830,1.2149308
831,1.0890684
832,0.98336855
833,1.0141238
834,0.9526287
835,0.749326
836,1.0070757
837,1.6349896
838,1.4933655
839,-0.78313438
840,-0.297161
841,-2.7666349
842,-4.1021848
843,-4.5896691
844,-4.2193569
845,-3.6504434
846,-2.3005176
847,-1.2939171
848,-1.0656583
849,-0.4905204
850,0.050751439
851,-0.076647389
852,-0.094646854
853,-0.15817964
854,-0.068691701
855,-0.14083211
856,-0.069176949
857,-0.13427557
858,-0.059198867
859,-0.13137923
860,-0.18120811
861,-0.21596475
862,-0.21755404
863,-0.25406003
864,-0.33124688
865,-0.30492329
866,-0.2737944
867,-0.34793484
868,-0.38742898
869,-0.4040032
870,-0.42504802
871,-0.50769997
872,-0.58216786
873,-0.53291699
874,-0.637873
875,-0.65593804
876,-0.54965323
877,-0.68673176
878,-0.58303665
879,-0.63651154
880,-0.62084931
881,-0.468289
882,-0.42352427
883,-0.32470491
884,-0.26358651
885,-0.12755785
886,0.011174656
887,0.024380947
888,0.08477279
889,0.059935601
890,0.16447101
891,0.1622137
892,0.12599133
893,0.14362743
894,0.078258906
895,0.17851919
896,0.12659749
897,0.17504434
898,0.1694566
899,0.29969735
900,0.24249451
901,0.29716945
902,0.23840226
903,0.24915624
904,0.22551958
905,0.26718444
906,0.2366261
907,0.25742585
908,0.41650766
909,0.42657605
910,0.45903586
911,0.41659532
912,0.40912708
913,0.39677707
914,0.55726867
915,0.53500713
916,0.59007557
917,0.58584409
918,0.56813068
919,0.55498601
920,0.45756205
921,0.46270393
922,0.49946994
923,0.45014046
924,0.37201043
925,0.42852068
926,0.30460405
927,0.24412519
928,0.29406742
929,0.20671765
930,0.37245704
931,0.39460372
932,0.39444908
933,0.40425396
934,0.45989803
935,0.67724204
936,0.81142429
937,0.88952757
938,1.1303855
939,1.2852143
940,1.6523744
941,1.8393372
942,1.9485002
943,1.9406907
944,1.8161016
945,1.7273154
946,1.5512273
947,1.2119247
948,1.1334151
949,0.74591889
950,0.36093266
951,-0.12851839
952,-0.39421797
953,-0.43660141
954,-0.50647651
955,-0.4551471
956,-0.45786634
957,-0.54529921
958,-0.50609683
959,-0.3765287
960,-0.45780449
961,-0.49545976
962,-0.45869326
963,-0.33281149
964,-0.41033407
965,-0.40651848
966,-0.33723175
967,-0.38647852
968,-0.082580102
969,0.2203161
970,0.59497827
971,0.58177878
972,0.68440603
973,0.91165083
974,0.97948323
975,1.0534584
976,0.97478703
977,1.1104073
978,1.2881654
979,-0.82338562
980,0.44676853
981,-1.5073974
982,-3.1874679
983,-4.5074621
984,-4.6042007
985,-3.636115
986,-2.3116038
987,-1.5977275
988,-1.3624498
989,-0.66921633
990,-0.17339277
991,-0.20511622
992,-0.23078667
993,-0.17712137
994,-0.23850955
995,-0.20507877
996,-0.23054363
997,-0.20915931
998,-0.29293956
999,-0.25506852
1000,-0.2539899
1001,-0.35197992
1002,-0.42773929
1003,-0.4659477
1004,-0.46028596
1005,-0.4750621
1006,-0.44974621
1007,-0.56228003
1008,-0.532781
1009,-0.63579716
1010,-0.63658771
1011,-0.749548
1012,-0.80678463
1013,-0.69629187
1014,-0.85528234
1015,-0.8962553
1016,-0.90567196
1017,-0.90845622
1018,-0.83008356
1019,-0.83883747
1020,-0.69212508
1021,-0.64576927
1022,-0.48887225
1023,-0.40645909
1024,-0.35637924
1025,-0.22657834
1026,-0.20574481
1027,-0.071802463
1028,-0.066372326
1029,0.0075019777
1030,0.030631739
1031,0.020969858
1032,0.033968155
1033,0.16488977
1034,0.083023926
1035,0.045058956
1036,-0.0047666788
1037,0.12381566
1038,0.10804433
1039,0.073935543
1040,0.11256906
1041,0.055672868
1042,0.12375141
1043,0.22032513
1044,0.23411098
1045,0.32279232
1046,0.21513818
1047,0.33896743
1048,0.33478514
1049,0.32808378
1050,0.51228301
1051,0.49876823
1052,0.60277392
1053,0.65327531
1054,0.68093211
1055,0.72841436
1056,0.68048301
1057,0.6405041
1058,0.6205017
1059,0.65800821
1060,0.71363176
1061,0.6216716
1062,0.48816176
1063,0.45528345
1064,0.42458401
1065,0.50446979
1066,0.42813301
1067,0.45083786
1068,0.44836001
1069,0.38991267
1070,0.39158529
1071,0.34956959
1072,0.41467343
1073,0.47231448
1074,0.56453121
1075,0.73509325
1076,0.79975056
1077,1.1259942
1078,1.1641296
1079,1.2818475
1080,1.5527349
1081,1.6916357
1082,1.8828098
1083,1.760313
1084,1.8258701
1085,1.6193333
1086,1.3949016
1087,1.1327886
1088,0.9283516
1089,0.59884412
1090,0.22924343
1091,-0.1447077
1092,-0.27006863
1093,-0.32319297
1094,-0.34959834
1095,-0.29816321
1096,-0.25184329
1097,-0.29194076
1098,-0.41334591
1099,-0.30745492
1100,-0.33082525
1101,-0.43238918
1102,-0.28993487
1103,-0.32493274
1104,-0.30928759
1105,-0.2525674
1106,-0.28258614
1107,-0.16934497
1108,0.25872903
1109,0.89662717
1110,1.0882033
1111,1.0013058
1112,1.2920592
1113,1.3786665
1114,1.0147645
1115,0.82079301
1116,1.034388
1117,1.2584334
1118,0.96121472
1119,-0.99947589
1120,0.087630577
1121,-1.7534903
1122,-3.3044731
1123,-4.7046566
1124,-4.6864151
1125,-3.6118167
1126,-2.2672676
1127,-1.570893
1128,-1.4177903
1129,-0.50078809
1130,-0.22517739
1131,-0.30883362
1132,-0.21473324
1133,-0.21450921
1134,-0.22312107
1135,-0.26233599
1136,-0.2118159
1137,-0.29909881
1138,-0.25995633
1139,-0.31610955
1140,-0.25866848
1141,-0.28714668
1142,-0.36685535
1143,-0.30598032
1144,-0.41670806
1145,-0.40230307
1146,-0.3815541
1147,-0.51989677
1148,-0.52095179
1149,-0.59691915
1150,-0.6507003
1151,-0.67963616
1152,-0.75152681
1153,-0.72522391
1154,-0.83070065
1155,-0.80731727
1156,-0.84838836
1157,-0.74455386
1158,-0.69997298
1159,-0.75435259
1160,-0.62191821
1161,-0.53394237
1162,-0.3965959
1163,-0.22089032
1164,-0.17931625
1165,-0.0094803401
1166,-0.024018025
1167,0.041459691
1168,0.094492517
1169,0.083212059
1170,0.099031316
1171,0.045914253
1172,0.10951946
1173,0.168162
1174,0.26346944
1175,0.13610056
1176,0.15883825
1177,0.08980313
1178,0.14660419
1179,0.19676887
1180,0.26898346
1181,0.23726297
1182,0.18635578
1183,0.24141723
1184,0.27842589
1185,0.38315578
1186,0.38957693
1187,0.39354878
1188,0.57738569
1189,0.58774864
1190,0.58188293
1191,0.5449169
1192,0.65788513
1193,0.60177743
1194,0.64273411
1195,0.69906231
1196,0.6801103
1197,0.69863975
1198,0.71617522
1199,0.66862611
1200,0.6718266
1201,0.57504464
1202,0.5292125
1203,0.54333826
1204,0.60328119
1205,0.55471386
1206,0.56362046
1207,0.48903431
1208,0.44695034
1209,0.45643246
1210,0.39325248
1211,0.44143912
1212,0.44738863
1213,0.27405506
1214,0.36460866
1215,0.40121863
1216,0.44788969
1217,0.54780929
1218,0.6420901
1219,0.78832807
1220,0.74980141
1221,0.82085218
1222,0.96416033
1223,1.0618841
1224,1.3408602
1225,1.1378081
1226,0.86401264
1227,0.6839801
1228,0.62842387
1229,0.50113433
1230,0.49129218
1231,0.46193736
1232,0.32981245
1233,0.1204151
1234,-0.14196808
1235,-0.19517724
1236,-0.10265211
1237,-0.076308425
1238,-0.11651106
1239,-0.19168563
1240,-0.23429165
1241,-0.16112658
1242,-0.14536342
1243,-0.21218169
1244,-0.13568405
1245,-0.1334405
1246,-0.17007668
1247,-0.035913592
1248,0.33224263
1249,1.0632505
1250,1.575754
1251,1.7090456
1252,2.1429259
1253,2.393528
1254,1.92555
1255,1.0276237
1256,0.57345293
1257,0.19297149
1258,-0.64868286
1259,-2.4410678
1260,-0.83228111
1261,-1.7003675
1262,-2.2573013
1263,-2.8536712
1264,-2.8533008
1265,-2.7014866
1266,-2.2857261
1267,-1.555512
1268,-1.2666223
1269,-1.085957
1270,-0.69464057
1271,-0.58851692
1272,-0.66246942
1273,-0.76800441
1274,-0.7725505
1275,-0.62105407
1276,-0.61418665
1277,-0.63012434
1278,-0.66957728
1279,-0.68415362
1280,-0.69294243
1281,-0.61130156
1282,-0.64700697
1283,-0.62136212
1284,-0.6410713
1285,-0.65907019
1286,-0.62097711
1287,-0.67492061
1288,-0.66416383
1289,-0.7369427
1290,-0.76923705
1291,-0.69965708
1292,-0.80030165
1293,-0.72742332
1294,-0.75043487
1295,-0.78906542
1296,-0.73295704
1297,-0.76548658
1298,-0.69708867
1299,-0.76728083
1300,-0.71641729
1301,-0.64584327
1302,-0.57317813
1303,-0.5602558
1304,-0.61643357
1305,-0.61431553
1306,-0.55193907
1307,-0.40993954
1308,-0.46597041
1309,-0.42836411
1310,-0.42283947
1311,-0.3713889
1312,-0.39472419
1313,-0.42201833
1314,-0.35485451
1315,-0.40841286
1316,-0.42534175
1317,-0.38702144
1318,-0.40999646
1319,-0.42726131
1320,-0.38690279
1321,-0.37227239
1322,-0.38801449
1323,-0.32093223
1324,-0.36169826
1325,-0.30421592
1326,-0.2208256
1327,-0.26522743
1328,-0.25316306
1329,-0.17678608
1330,-0.18033685
1331,-0.13543422
1332,-0.10218701
1333,-0.069772168
1334,-0.012025854
1335,0.019392818
1336,0.0023502179
1337,0.025684537
1338,0.10619972
1339,0.060628283
1340,0.14100528
1341,0.098627186
1342,0.10026031
1343,0.1249692
1344,0.13151283
1345,0.15842003
1346,0.10196096
1347,0.16902623
1348,0.19830596
1349,0.16513906
1350,0.19785921
1351,0.11946397
1352,0.24410863
1353,0.36000277
1354,0.46532602
1355,0.5042099
1356,0.55611785
1357,0.68718873
1358,0.82299787
1359,0.92351214
1360,1.0769364
1361,1.1586477
1362,1.1558893
1363,1.1376925
1364,1.0217586
1365,0.91858098
1366,0.83113319
1367,0.68050602
1368,0.54029633
1369,0.46392539
1370,0.13576907
1371,0.040805901
1372,0.055551077
1373,0.018917608
1374,0.1489734
1375,0.39533782
1376,0.77973296
1377,0.94139313
1378,1.0007652
1379,0.9859304
1380,0.97372193
1381,1.0344785
1382,1.0622647
1383,1.0609783
1384,1.1161974
1385,1.2243507
1386,1.4212402
1387,1.6446545
1388,2.0071813
1389,2.1185986
1390,2.0283038
1391,2.1105038
1392,2.2036678
1393,2.2275444
1394,2.1717334
1395,2.0459377
1396,2.1263716
1397,2.1268518
1398,1.6792986
1399,0.96581366
1400,0.084430128
1401,-3.1903071
1402,-4.686175
1403,-4.5594833
1404,-4.0879723
1405,-2.6188591
1406,-1.7605895
1407,-1.5929641
1408,-0.56911653
1409,-0.1303995
1410,-0.17370458
1411,-0.15454113
1412,-0.11002092
1413,-0.099078691
1414,-0.12750212
1415,-0.15563878
1416,-0.16613496
1417,-0.18039026
1418,-0.11864333
1419,-0.14853266
1420,-0.22084811
1421,-0.21329672
1422,-0.30026262
1423,-0.34072202
1424,-0.41811977
1425,-0.51138155
1426,-0.51300763
1427,-0.60834007
1428,-0.69274586
1429,-0.73708018
1430,-0.76917735
1431,-0.71278713
1432,-0.83424775
1433,-0.81326841
1434,-0.89117252
1435,-0.88461246
1436,-0.79474086
1437,-0.80278306
1438,-0.80424269
1439,-0.76484136
1440,-0.72056788
1441,-0.61615484
1442,-0.52870277
1443,-0.3580067
1444,-0.29460302
1445,-0.24713024
1446,-0.18558663
1447,-0.16121218
1448,-0.15045335
1449,-0.057265099
1450,-0.0071218149
1451,0.018179982
1452,0.045173466
1453,0.086900977
1454,0.025782646
1455,0.082907602
1456,0.067584025
1457,0.13455151
1458,0.25097694
1459,0.22403714
1460,0.2117415
1461,0.14528316
1462,0.2403697
1463,0.27144822
1464,0.19709405
1465,0.35852835
1466,0.45131703
1467,0.40618248
1468,0.54828199
1469,0.51869113
1470,0.55756468
1471,0.61620058
1472,0.55313175
1473,0.59117333
1474,0.61090031
1475,0.53363841
1476,0.51353788
1477,0.6156324
1478,0.47098399
1479,0.45231736
1480,0.4216438
1481,0.48208225
1482,0.37153944
1483,0.38604997
1484,0.39589425
1485,0.38188301
1486,0.32636596
1487,0.34629094
1488,0.22860941
1489,0.2733952
1490,0.32381313
1491,0.23135448
1492,0.24341118
1493,0.30025892
1494,0.23570462
1495,0.21689355
1496,0.26646861
1497,0.28661239
1498,0.55197245
1499,0.7436647
1500,1.1209808
1501,1.2565289
1502,1.3506048
1503,1.5030465
1504,1.9050613
1505,1.977696
1506,1.7310649
1507,1.6800087
1508,1.4572779
1509,1.304503
1510,1.1445094
1511,0.75396576
1512,0.3395384
1513,-0.116375
1514,-0.29537289
1515,-0.24483602
1516,-0.32682085
1517,-0.215118
1518,-0.34200912
1519,-0.41663854
1520,-0.27606039
1521,-0.26073745
1522,-0.23416539
1523,-0.2129201
1524,-0.19000441
1525,-0.19854207
1526,-0.14229553
1527,-0.082819151
1528,-0.073201588
1529,0.0059626656
1530,0.46716454
1531,1.1522791
1532,1.271808
1533,1.190796
1534,1.1807378
1535,1.058195
1536,0.98257725
1537,0.87377195
1538,1.6267069
1539,-0.020783419
1540,-0.0078191379
1541,-2.3367567
1542,-3.527643
1543,-4.3262444
1544,-3.8904138
1545,-2.9460007
1546,-1.9224567
1547,-1.6705388
1548,-1.3031111
1549,-0.29907967
1550,-0.27366841
1551,-0.27928163
1552,-0.2855121
1553,-0.28919989
1554,-0.29263189
1555,-0.39760935
1556,-0.40128027
1557,-0.44610812
1558,-0.46326401
1559,-0.39617077
1560,-0.31596354
1561,-0.37036618
1562,-0.52714926
1563,-0.58197651
1564,-0.62449313
1565,-0.5527842
1566,-0.62293266
1567,-0.68911027
1568,-0.65794047
1569,-0.76140667
1570,-0.73041856
1571,-0.76516833
1572,-0.85597892
1573,-1.0090543
1574,-1.0606607
1575,-1.0671751
1576,-1.090252
1577,-1.0909388
1578,-1.0669016
1579,-1.0828626
1580,-1.0821855
1581,-0.98674608
1582,-0.9368936
1583,-0.81903706
1584,-0.6858503
1585,-0.6245824
1586,-0.49029342
1587,-0.42600697
1588,-0.36034912
1589,-0.20807361
1590,-0.12508695
1591,-0.18817969
1592,-0.11813875
1593,-0.11355795
1594,-0.14616953
1595,-0.091184183
1596,-0.046443318
1597,-0.0041551965
1598,0.006803061
1599,0.0099330391
1600,-0.019665082
1601,-0.040473591
1602,0.052610775
1603,0.026297585
1604,0.023167188
1605,0.11511491
1606,0.15657944
1607,0.19955413
1608,0.17143918
1609,0.2258537
1610,0.31608261
1611,0.37923683
1612,0.37006024
1613,0.41175447
1614,0.46197749
1615,0.54320326
1616,0.54880024
1617,0.48250766
1618,0.57314352
1619,0.52836526
1620,0.51934147
1621,0.47618857
1622,0.46593179
1623,0.43017034
1624,0.45440471
1625,0.43137952
1626,0.41159179
1627,0.45023345
1628,0.42072954
1629,0.35379033
1630,0.42603056
1631,0.3832093
1632,0.36046275
1633,0.39338516
1634,0.38357026
1635,0.35661533
1636,0.51977247
1637,0.55465908
1638,0.61016699
1639,0.73042397
1640,0.95537319
1641,1.1374762
1642,1.2442845
1643,1.4987644
1644,1.6533845
1645,1.7163956
1646,1.6937524
1647,1.6150577
1648,1.6204593
1649,1.4205859
1650,1.1758989
1651,0.91863064
1652,0.57623684
1653,0.26696355
1654,0.077792235
1655,0.050024788
1656,0.12544997
1657,0.21135015
1658,0.15532258
1659,0.15655616
1660,0.10462987
1661,0.16696775
1662,0.19685621
1663,0.24186926
1664,0.21510645
1665,0.20137985
1666,0.25710179
1667,0.22749674
1668,0.39845371
1669,0.81057843
1670,1.5422583
1671,1.5267386
1672,1.426058
1673,1.5891262
1674,1.5648449
1675,1.3347122
1676,1.1652085
1677,0.95443408
1678,1.470211
1679,0.39306323
1680,-1.0743015
1681,-3.2593996
1682,-4.1259793
1683,-4.3424462
1684,-3.9225581
1685,-3.1901557
1686,-1.9460608
1687,-1.554774
1688,-1.2963524
1689,-0.56500449
1690,-0.10577056
1691,-0.11813282
1692,-0.16329874
1693,-0.16615776
1694,-0.14780036
1695,-0.13748339
1696,-0.1031855
1697,-0.13264396
1698,-0.097150159
1699,-0.088237275
1700,-0.2129409
1701,-0.23469869
1702,-0.28181156
1703,-0.28953936
1704,-0.32886033
1705,-0.37907232
1706,-0.45602242
1707,-0.39615841
1708,-0.44200544
1709,-0.45891429
1710,-0.52002548
1711,-0.58236633
1712,-0.63331585
1713,-0.70967404
1714,-0.64087024
1715,-0.64152322
1716,-0.63568098
1717,-0.52959221
1718,-0.52781548
1719,-0.4515052
1720,-0.3963212
1721,-0.40267291
1722,-0.29558793
1723,-0.22151419
1724,-0.13692163
1725,-0.038955079
1726,-0.016756396
1727,0.12403993
1728,0.21481016
1729,0.21177552
1730,0.28344253
1731,0.18402967
1732,0.14159571
1733,0.15523323
1734,0.22338072
1735,0.14542889
1736,0.14192719
1737,0.15251023
1738,0.17836236
1739,0.13376138
1740,0.21736044
1741,0.21937523
1742,0.17338218
1743,0.22879701
1744,0.23978375
1745,0.29735952
1746,0.30262429
1747,0.38894263
1748,0.42777253
1749,0.44051275
1750,0.47315826
1751,0.53077965
1752,0.52585974
1753,0.55169954
1754,0.61346969
1755,0.65024299
1756,0.54995
1757,0.5818943
1758,0.5553134
1759,0.47195946
1760,0.48755566
1761,0.4962355
1762,0.46439761
1763,0.40633694
1764,0.37818354
1765,0.37418393
1766,0.39217362
1767,0.3505685
1768,0.40287261
1769,0.38801493
1770,0.25528492
1771,0.28871606
1772,0.35533813
1773,0.40729064
1774,0.58248244
1775,0.55011461
1776,0.7379141
1777,0.93778764
1778,1.153718
1779,1.4648005
1780,1.8358526
1781,2.1568953
1782,2.16781
1783,2.0665876
1784,1.8171367
1785,1.6657929
1786,1.4019038
1787,1.1256864
1788,0.64539177
1789,0.27767517
1790,-0.15344
1791,-0.38774715
1792,-0.44750766
1793,-0.47512055
1794,-0.46610713
1795,-0.46673156
1796,-0.50941984
1797,-0.55514884
1798,-0.47078248
1799,-0.47006473
1800,-0.47874456
1801,-0.44130873
1802,-0.42388426
1803,-0.46550235
1804,-0.42916721
1805,-0.31364066
1806,-0.35887253
1807,-0.22405015
1808,0.16157304
1809,0.77736237
1810,0.85651474
1811,0.93106427
1812,1.1292417
1813,1.0235497
1814,0.76771337
1815,0.61342569
1816,0.69624715
1817,1.176666
1818,1.1316334
1819,-1.0949732
1820,4.0581274
1821,2.0878442
1822,0.4231153
1823,-2.0588691
1824,-3.2376915
1825,-4.5267529
1826,-3.8361573
1827,-1.9750063
1828,-0.78335306
1829,-0.38103834
1830,0.89943175
1831,1.5067459
1832,1.1748641
1833,1.2346958
1834,1.1736633
1835,1.2208137
1836,1.2611729
1837,1.2908708
1838,1.2858577
1839,1.1378515
1840,0.90326781
1841,0.96899861
1842,0.89832916
1843,0.72589558
1844,0.75098858
1845,0.65091167
1846,0.50533326
1847,0.39965642
1848,0.22806365
1849,0.37147076
1850,0.05259877
1851,0.016930755
1852,-0.29166129
1853,-0.17993871
1854,-0.28575471
1855,-0.52406259
1856,-0.54779474
1857,-0.56231929
1858,-0.59153508
1859,-0.79944254
1860,-0.71204342
1861,-0.64138635
1862,-0.65578025
1863,-0.51877396
1864,-0.40917534
1865,-0.41203873
1866,-0.21307428
1867,0.029181096
1868,0.11180697
1869,0.056617946
1870,0.26037196
1871,0.16303214
1872,0.092609966
1873,0.0079472141
1874,0.068280563
1875,0.21874927
1876,0.32833516
1877,0.36364284
1878,0.21674527
1879,0.18037912
1880,0.20337981
1881,0.040300362
1882,0.27022074
1883,0.15252781
1884,0.2082961
1885,0.32871803
1886,0.10004339
1887,0.34049918
1888,0.27333933
1889,0.39224732
1890,0.37920467
1891,0.4715419
1892,0.42477109
1893,0.4245013
1894,0.59528928
1895,0.47449468
1896,0.62632946
1897,0.50017107
1898,0.49472156
1899,0.42461325
1900,0.50887024
1901,0.4418146
1902,0.36925967
1903,0.28237625
1904,0.27723809
1905,0.26045847
1906,-0.00047767913
1907,-0.027998341
1908,-0.2154715
1909,0.049414319
1910,0.0046144104
1911,-0.20377006
1912,-0.24665436
1913,-0.34642498
1914,-0.088971099
1915,-0.42668836
1916,-0.37817546
1917,-0.22328332
1918,-0.3404631
1919,-0.46756212
1920,-0.26919317
1921,-0.26093301
1922,-0.32823634
1923,-0.26777948
1924,-0.41086656
1925,-0.010632832
1926,0.469535
1927,1.0310432
1928,0.94631964
1929,0.79969563
1930,0.47050645
1931,0.37471716
1932,0.12258893
1933,0.23883239
1934,0.34120839
1935,-0.11777447
1936,-0.55829682
1937,-1.1025884
1938,-1.2562895
1939,-1.1822768
1940,-1.2107513
1941,-0.97311758
1942,-1.2009763
1943,-1.2717045
1944,-1.1749427
1945,-1.0787344
1946,-1.0606461
1947,-1.279274
1948,-1.185413
1949,-0.99547326
1950,-0.8901655
1951,-0.10400893
1952,1.5046435
1953,1.3920341
1954,1.3311414
1955,1.1975315
1956,1.0928611
1957,-0.12932652
1958,-1.0382589
1959,-1.4898633
1960,-0.76160326
1961,-2.9212433
1962,-3.8943153
1963,-4.384961
1964,-4.0682246
1965,-3.5111043
1966,-2.5328155
1967,-1.6873964
1968,-1.3980988
1969,-0.89928768
1970,-0.53766749
1971,-0.4819763
1972,-0.5333801
1973,-0.52246989
1974,-0.49307977
1975,-0.53051716
1976,-0.44779559
1977,-0.46459623
1978,-0.38506357
1979,-0.48942808
1980,-0.42492148
1981,-0.44130039
1982,-0.37539759
1983,-0.45228681
1984,-0.40672606
1985,-0.41976808
1986,-0.47985054
1987,-0.45911045
1988,-0.45683208
1989,-0.48010485
1990,-0.58779941
1991,-0.57426024
1992,-0.55424721
1993,-0.62051811
1994,-0.5948176
1995,-0.61261337
1996,-0.64766504
1997,-0.56023832
1998,-0.63740623
1999,-0.63460819
2000,-0.51851928
2001,-0.50397191
2002,-0.36189107
2003,-0.29904866
2004,-0.26717888
2005,-0.19419251
2006,-0.19240208
2007,-0.071317489
2008,-0.053523598
2009,-0.029566763
2010,0.047020617
2011,0.0040209855
2012,0.055046918
2013,0.04336091
2014,0.023562547
2015,0.019542722
2016,0.013656264
2017,0.084049077
2018,0.090896122
2019,0.12223264
2020,0.1628499
2021,0.082302086
2022,0.23661865
2023,0.18365295
2024,0.18977741
2025,0.20949712
2026,0.20935465
2027,0.20315573
2028,0.33178146
2029,0.3224094
2030,0.38638533
2031,0.40866058
2032,0.38929727
2033,0.53045532
2034,0.54518428
2035,0.58389835
2036,0.63601033
2037,0.69719605
2038,0.58756363
2039,0.64901772
2040,0.63839173
2041,0.59604228
2042,0.55777869
2043,0.54128097
2044,0.55901731
2045,0.53776883
2046,0.52052714
2047,0.44365812
2048,0.54493639
2049,0.52231248
2050,0.5076893
2051,0.49369375
2052,0.48639967
2053,0.47171256
2054,0.50220469
2055,0.68602434
2056,0.81336346
2057,0.92577458
2058,1.0300284
2059,1.1044336
2060,1.3856685
2061,1.5812144
2062,1.7173166
2063,1.7044098
2064,1.6705234
2065,1.5924119
2066,1.4331079
2067,1.2461458
2068,1.0478742
2069,0.80275863
2070,0.50358214
2071,0.31896599
2072,-0.012007384
2073,-0.042840598
2074,-0.10770912
2075,-0.16100313
2076,-0.20358106
2077,-0.14437556
2078,-0.14597041
2079,-0.20486453
2080,-0.1647142
2081,-0.17971524
2082,-0.17907795
2083,-0.15822417
2084,-0.12270101
2085,-0.10996763
2086,-0.084732804
2087,-0.04736188
2088,0.21757117
2089,0.58297649
2090,1.0009154
2091,1.0731004
2092,1.2425013
2093,1.4495869
2094,1.3797497
2095,1.0681166
2096,0.74606108
2097,0.84904613
2098,1.1621124
2099,-0.38125681
2100,-0.18649962
2101,-2.6824878
2102,-4.0168823
2103,-4.2181222
2104,-3.8416655
2105,-2.9940593
2106,-1.9739404
2107,-1.6397073
2108,-1.2912067
2109,-0.56676936
2110,-0.32797059
2111,-0.35881305
2112,-0.36747683
2113,-0.26171947
2114,-0.43112527
2115,-0.44179395
2116,-0.3533499
2117,-0.37600121
2118,-0.36462327
2119,-0.38663497
2120,-0.41732614
2121,-0.46416289
2122,-0.46274808
2123,-0.54337028
2124,-0.54589006
2125,-0.54595426
2126,-0.59512355
2127,-0.69263085
2128,-0.6992367
2129,-0.71662131
2130,-0.6611285
2131,-0.76789989
2132,-0.81352439
2133,-0.8734148
2134,-0.9560522
2135,-0.87202803
2136,-0.87619337
2137,-0.81070489
2138,-0.79011728
2139,-0.71594341
2140,-0.59079026
2141,-0.53481418
2142,-0.4767132
2143,-0.37184064
2144,-0.24637294
2145,-0.13094889
2146,-0.12053496
2147,0.014479258
2148,0.011071589
2149,0.0022752286
2150,0.11652929
2151,0.084693509
2152,0.1283251
2153,0.1601575
2154,0.10118565
2155,0.14420806
2156,0.13636224
2157,0.16388596
2158,0.20674542
2159,0.29980544
2160,0.30896572
2161,0.30677655
2162,0.34639645
2163,0.31397849
2164,0.3859669
2165,0.5131817
2166,0.45898087
2167,0.56655463
2168,0.58107131
2169,0.58295677
2170,0.69183783
2171,0.67918912
2172,0.67279958
2173,0.67036759
2174,0.6827621
2175,0.64401916
2176,0.60561895
2177,0.70029255
2178,0.64454818
2179,0.51677329
2180,0.59514554
2181,0.68509769
2182,0.5734656
2183,0.52972662
2184,0.52142569
2185,0.53106979
2186,0.38848935
2187,0.48497031
2188,0.38670994
2189,0.37442045
2190,0.43744564
2191,0.34410178
2192,0.37218879
2193,0.3764674
2194,0.31480166
2195,0.3627134
2196,0.59456603
2197,0.75787651
2198,0.91904515
2199,1.1127328
2200,1.278646
2201,1.3747004
2202,1.7065354
2203,1.8956841
2204,1.8727833
2205,1.7721659
2206,1.6967053
2207,1.3856256
2208,1.2328678
2209,0.9505372
2210,0.57927666
2211,0.2959571
2212,-0.20178549
2213,-0.30348223
2214,-0.38762337
2215,-0.36700021
2216,-0.37480505
2217,-0.47913017
2218,-0.38322503
2219,-0.39308814
2220,-0.46479868
2221,-0.41347572
2222,-0.40945921
2223,-0.46814299
2224,-0.41410923
2225,-0.37715362
2226,-0.33561887
2227,-0.36524952
2228,-0.13930581
2229,0.1456822
2230,0.80874553
2231,0.78128882
2232,0.72518731
2233,1.0682644
2234,1.1297018
2235,0.940981
2236,1.0080436
2237,1.5642571
2238,2.1514756
2239,0.18005396
2240,0.80393944
2241,-1.1069099
2242,-2.8541073
2243,-3.8986873
2244,-4.1531318
2245,-3.9971558
2246,-3.2908875
2247,-2.1893642
2248,-1.5822713
2249,-1.4197418
2250,-0.77623822
2251,-0.36466834
2252,-0.35131917
2253,-0.28209846
2254,-0.32809502
2255,-0.24445476
2256,-0.27204293
2257,-0.25295563
2258,-0.21698265
2259,-0.29821598
2260,-0.30900757
2261,-0.31775712
2262,-0.37635874
2263,-0.40969467
2264,-0.37896253
2265,-0.43216817
2266,-0.47256245
2267,-0.45051965
2268,-0.47193918
2269,-0.50832158
2270,-0.63612133
2271,-0.57613836
2272,-0.64785973
2273,-0.65471828
2274,-0.66189443
2275,-0.64606584
2276,-0.57512668
2277,-0.58149884
2278,-0.56127511
2279,-0.56830862
2280,-0.45494409
2281,-0.43891843
2282,-0.32415361
2283,-0.21697821
2284,-0.22141165
2285,-0.14777626
2286,-0.063389856
2287,0.022359195
2288,-0.053922652
2289,0.036558661
2290,0.062544658
2291,0.01289971
2292,0.17091905
2293,0.023649326
2294,-0.00090073401
2295,0.046446378
2296,0.068936828
2297,0.022108195
2298,0.094244559
2299,0.085704019
2300,0.1630688
2301,0.16418196
2302,0.13652682
2303,0.1895401
2304,0.24475174
2305,0.34320768
2306,0.2558181
2307,0.31011176
2308,0.3933497
2309,0.34045738
2310,0.47296407
2311,0.55601857
2312,0.63041308
2313,0.6022866
2314,0.53315645
2315,0.59669968
2316,0.76151275
2317,0.60544583
2318,0.73387369
2319,0.69851521
2320,0.67935095
2321,0.61438734
2322,0.59744178
2323,0.5448784
2324,0.52520109
2325,0.52317415
2326,0.48486465
2327,0.49053208
2328,0.45309773
2329,0.37501758
2330,0.37100799
2331,0.48005072
2332,0.42530487
2333,0.50881377
2334,0.68847679
2335,0.83558126
2336,0.9802153
2337,1.1705984
2338,1.3240908
2339,1.5856125
2340,1.7161152
2341,1.9341456
2342,1.9404373
2343,1.8565974
2344,1.7979553
2345,1.6118864
2346,1.4324763
2347,1.1167874
2348,0.86855153
2349,0.48389514
2350,0.10958938
2351,-0.1271405
2352,-0.31815938
2353,-0.3904573
2354,-0.23712713
2355,-0.33023956
2356,-0.36411214
2357,-0.3923664
2358,-0.40263892
2359,-0.35864349
2360,-0.42113622
2361,-0.32743019
2362,-0.38767076
2363,-0.47892311
2364,-0.42738391
2365,-0.33768145
2366,-0.27741627
2367,-0.24917941
2368,0.12690831
2369,0.7574027
2370,0.85381342
2371,0.87943277
2372,1.0265218
2373,1.0746765
2374,0.8469406
2375,0.57368995
2376,0.85798633
2377,1.2024158
2378,0.61324167
2379,-1.6556465
2380,-0.92021269
2381,-2.4495095
2382,-3.1920276
2383,-3.8751634
2384,-4.1807232
2385,-3.8921772
2386,-3.1562282
2387,-2.0225688
2388,-1.5201389
2389,-1.1702225
2390,-0.59172108
2391,-0.39647627
2392,-0.41005285
2393,-0.44187569
2394,-0.41732916
2395,-0.4230577
2396,-0.31273006
2397,-0.30414413
2398,-0.30352531
2399,-0.34484548
2400,-0.3214973
2401,-0.22451271
2402,-0.3555104
2403,-0.24303292
2404,-0.3110669
2405,-0.39434553
2406,-0.34914971
2407,-0.33717006
2408,-0.425003
2409,-0.33987118
2410,-0.31567764
2411,-0.37498894
2412,-0.37463538
2413,-0.46719398
2414,-0.38971277
2415,-0.33762768
2416,-0.4256848
2417,-0.25257294
2418,-0.34635428
2419,-0.22780434
2420,-0.18190239
2421,-0.17013342
2422,-0.075184146
2423,-0.055117972
2424,0.057978477
2425,-0.030611937
2426,0.093540119
2427,0.10650889
2428,0.18256499
2429,0.17340756
2430,0.15274786
2431,0.17927537
2432,0.12103317
2433,0.16948828
2434,0.10872204
2435,0.16637585
2436,0.1449043
2437,0.20499389
2438,0.19213428
2439,0.11082794
2440,0.16703457
2441,0.14103825
2442,0.17080344
2443,0.22293486
2444,0.26776037
2445,0.31807691
2446,0.26640339
2447,0.32930595
2448,0.37284243
2449,0.36188937
2450,0.42514223
2451,0.53365866
2452,0.4146216
2453,0.53391196
2454,0.51904957
2455,0.53886307
2456,0.59249776
2457,0.53310578
2458,0.54039423
2459,0.64966984
2460,0.61520821
2461,0.52459282
2462,0.46795155
2463,0.52266134
2464,0.53384419
2465,0.50274413
2466,0.49962214
2467,0.38647544
2468,0.38632762
2469,0.49503317
2470,0.42799711
2471,0.40711516
2472,0.47528623
2473,0.49998032
2474,0.69165004
2475,0.84566192
2476,1.0553762
2477,1.1936459
2478,1.2772052
2479,1.4663071
2480,1.6674008
2481,1.9156015
2482,1.9280549
2483,1.8639853
2484,1.8670685
2485,1.6940862
2486,1.4754697
2487,1.3196559
2488,1.0656747
2489,0.89766616
2490,0.67712457
2491,0.24714371
2492,0.049676504
2493,-0.086538702
2494,-0.13490496
2495,-0.17308643
2496,-0.17088711
2497,-0.10809801
2498,-0.16925271
2499,-0.15074175
2500,-0.09864077
2501,-0.095393694
2502,-0.17334648
2503,-0.17934131
2504,-0.20345963
2505,-0.16022208
2506,-0.11141973
2507,-0.03391909
2508,0.27296036
2509,0.80906609
2510,1.4302895
2511,1.3466755
2512,0.99819255
2513,0.23454213
2514,-0.62493364
2515,-1.1341003
2516,-1.2635559
2517,-0.96427199
2518,-0.37083214
2519,-1.0404894
2520,2.7446026
2521,-0.10192395
2522,-2.8516809
2523,-3.9749087
2524,-3.9954373
2525,-3.7196635
2526,-2.6809699
2527,-1.441639
2528,-1.1668635
2529,-0.65717801
2530,0.19802989
2531,0.32560922
2532,0.24802392
2533,0.21410455
2534,0.2312347
2535,0.15602696
2536,0.18260884
2537,-0.017426684
2538,0.080068624
2539,0.17351764
2540,-0.0054520943
2541,0.08809177
2542,-0.06066651
2543,-0.061423634
2544,-0.23860138
2545,-0.11370367
2546,-0.20938474
2547,-0.28177691
2548,-0.2254406
2549,-0.40003596
2550,-0.34852623
2551,-0.54806559
2552,-0.63013946
2553,-0.59565712
2554,-0.67086368
2555,-0.66044288
2556,-0.67935651
2557,-0.55530684
2558,-0.616194
2559,-0.62244661
2560,-0.46646307
2561,-0.44755099
2562,-0.42212896
2563,-0.42526753
2564,-0.2661539
2565,-0.10979095
2566,-0.090907536
2567,0.040707874
2568,-0.015153917
2569,0.098671804
2570,0.15602186
2571,0.09898997
2572,0.10749287
2573,0.11013242
2574,0.13155461
2575,0.17084545
2576,0.19566172
2577,0.19983166
2578,0.21016696
2579,0.23489276
2580,0.20217599
2581,0.26879019
2582,0.26429342
2583,0.27906444
2584,0.38569496
2585,0.34877103
2586,0.38672994
2587,0.40572022
2588,0.40813245
2589,0.50926479
2590,0.44136309
2591,0.58979889
2592,0.59175812
2593,0.56674437
2594,0.56212416
2595,0.44679032
2596,0.53317478
2597,0.48217058
2598,0.45638518
2599,0.41738415
2600,0.41448074
2601,0.401348
2602,0.30965594
2603,0.2873534
2604,0.25443549
2605,0.24627087
2606,0.19433849
2607,0.12471424
2608,0.20298548
2609,0.11132273
2610,0.19316855
2611,0.10161629
2612,0.12920063
2613,0.2176154
2614,0.28361275
2615,0.41857961
2616,0.58901054
2617,0.83914654
2618,1.0475469
2619,1.2788147
2620,1.5889406
2621,1.9124875
2622,2.1550011
2623,1.9325243
2624,1.7873729
2625,1.7160542
2626,1.3623743
2627,1.0701441
2628,0.68076116
2629,0.4013946
2630,0.092853713
2631,-0.4851557
2632,-0.76519087
2633,-0.81784633
2634,-0.81884361
2635,-0.75210186
2636,-0.8481649
2637,-0.89043512
2638,-0.82548985
2639,-0.78801503
2640,-0.96854557
2641,-0.88286201
2642,-0.77959626
2643,-0.91587261
2644,-0.96062332
2645,-0.8737008
2646,-0.90314839
2647,-0.8208519
2648,-0.49385555
2649,0.21113998
2650,0.5036087
2651,0.45144067
2652,0.80277864
2653,0.88392204
2654,0.8953199
2655,0.84012611
2656,1.3051815
2657,2.1146869
2658,1.5902704
2659,-1.9219276
2660,2.4028692
2661,2.036719
2662,0.34090237
2663,-1.2864359
2664,-3.3014551
2665,-4.2245689
2666,-3.3983068
2667,-2.0793023
2668,-1.5979055
2669,-1.5279736
2670,-0.075556017
2671,0.15018446
2672,-0.018965012
2673,0.15663253
2674,0.083514438
2675,0.054505576
2676,0.06397801
2677,-0.01048702
2678,-0.074013727
2679,-0.10897484
2680,-0.026492113
2681,-0.23756575
2682,-0.21214982
2683,-0.27712782
2684,-0.37903349
2685,-0.32254435
2686,-0.48713548
2687,-0.65077272
2688,-0.70534842
2689,-0.70664499
2690,-0.92590132
2691,-0.8662099
2692,-0.99841442
2693,-1.126847
2694,-1.3522409
2695,-1.4065604
2696,-1.3555018
2697,-1.457718
2698,-1.4997178
2699,-1.5850003
2700,-1.4679456
2701,-1.372172
2702,-1.3730991
2703,-1.2589068
2704,-1.0889847
2705,-0.92281284
2706,-0.9173121
2707,-0.6498836
2708,-0.57360531
2709,-0.35838517
2710,-0.36869867
2711,-0.32218233
2712,-0.2347721
2713,-0.38168321
2714,-0.22551155
2715,-0.15688768
2716,-0.10989784
2717,-0.045662064
2718,0.057007987
2719,-0.0044050464
2720,0.2453564
2721,0.086985038
2722,0.1154461
2723,0.22758341
2724,0.20257055
2725,0.26671901
2726,0.14088738
2727,0.37303201
2728,0.45446408
2729,0.42525272
2730,0.60888085
2731,0.40595386
2732,0.56530587
2733,0.51118929
2734,0.60684592
2735,0.54951025
2736,0.50974454
2737,0.78727949
2738,0.61515125
2739,0.53754415
2740,0.58858151
2741,0.58357135
2742,0.57533841
2743,0.479062
2744,0.51443781
2745,0.58001535
2746,0.46947286
2747,0.38714849
2748,0.42924352
2749,0.46601572
2750,0.40643673
2751,0.32298924
2752,0.2049005
2753,0.17274564
2754,0.36359224
2755,0.19390179
2756,0.1845098
2757,0.18137323
2758,0.2599665
2759,0.24193444
2760,0.42826528
2761,0.23032876
2762,0.11846871
2763,0.17731718
2764,0.44046951
2765,0.44224902
2766,0.63561819
2767,1.1076544
2768,1.4457986
2769,1.4092977
2770,1.1878451
2771,1.1434059
2772,0.89119047
2773,0.71810525
2774,0.90452113
2775,0.83995397
2776,0.49346968
2777,0.12504912
2778,-0.30902264
2779,-0.32715519
2780,-0.26980512
2781,-0.21065767
2782,-0.22993566
2783,-0.22410193
2784,-0.21592104
2785,-0.23121885
2786,-0.10172133
2787,-0.12929552
2788,0.0073680101
2789,-0.034076312
2790,0.11813815
2791,0.41608709
2792,1.1149831
2793,0.89916395
2794,1.1545248
2795,1.9873284
2796,2.4287317
2797,2.6139868
2798,1.9628195
2799,1.7691982
2800,-1.3622631
2801,-3.3530235
2802,-3.9756571
2803,-4.2282265
2804,-3.7996727
2805,-3.218119
2806,-2.049291
2807,-1.5296725
2808,-1.2974544
2809,-0.83059008
2810,-0.42436503
2811,-0.47203471
2812,-0.51516888
2813,-0.40258721
2814,-0.43984377
2815,-0.40805466
2816,-0.34322968
2817,-0.38626221
2818,-0.44859756
2819,-0.44478779
2820,-0.46136538
2821,-0.35765502
2822,-0.45114956
2823,-0.45308283
2824,-0.41227691
2825,-0.45107308
2826,-0.3903585
2827,-0.46497817
2828,-0.45665371
2829,-0.61793431
2830,-0.62550533
2831,-0.59844355
2832,-0.67672941
2833,-0.66020892
2834,-0.65055473
2835,-0.62648659
2836,-0.57630822
2837,-0.61395077
2838,-0.54016171
2839,-0.47888403
2840,-0.48626422
2841,-0.4357446
2842,-0.40404034
2843,-0.29283292
2844,-0.17227963
2845,-0.055059062
2846,-0.039811028
2847,-0.021250817
2848,0.021225858
2849,0.032141501
2850,0.0055192555
2851,0.078736856
2852,0.057119396
2853,-0.011383557
2854,0.062648614
2855,0.018703334
2856,0.066690407
2857,0.036431097
2858,0.0673542
2859,0.1152615
2860,0.042019669
2861,0.12611329
2862,0.031845278
2863,-0.0050344263
2864,0.25914945
2865,0.19144553
2866,0.28882797
2867,0.208862
2868,0.27987512
2869,0.28161752
2870,0.3040742
2871,0.36857037
2872,0.36852886
2873,0.48424656
2874,0.45195308
2875,0.53652412
2876,0.44951282
2877,0.508908
2878,0.59790349
2879,0.65801959
2880,0.61776177
2881,0.62312973
2882,0.61290676
2883,0.5606624
2884,0.56296018
2885,0.55307739
2886,0.50082801
2887,0.53918461
2888,0.41686391
2889,0.50496427
2890,0.48994675
2891,0.51285718
2892,0.55113786
2893,0.6061756
2894,0.71442683
2895,0.84235569
2896,0.99378893
2897,1.1099169
2898,1.1483134
2899,1.3754203
2900,1.6109722
2901,1.7430714
2902,1.7895363
2903,1.6545782
2904,1.5758174
2905,1.4343887
2906,1.3748985
2907,1.063426
2908,0.86959095
2909,0.58586802
2910,0.26028238
2911,0.13745371
2912,0.034019054
2913,-0.019212965
2914,0.026099144
2915,-0.078532135
2916,-0.065535432
2917,-6.0685538e-05
2918,-0.00070388093
2919,-0.10944542
2920,-0.082693936
2921,-0.07276241
2922,-0.02545923
2923,0.018727637
2924,0.0017723386
2925,0.054476173
2926,0.010278866
2927,0.23725283
2928,0.76055281
2929,1.0643457
2930,1.1205282
2931,1.3098261
2932,1.468151
2933,1.2678399
2934,0.87240877
2935,0.63855492
2936,0.91927041
2937,0.71614672
2938,-0.35122193
2939,-2.2346511
2940,1.9354139
2941,-0.54876161
2942,-2.3433933
2943,-3.3785997
2944,-4.2434162
2945,-4.1082127
2946,-3.044811
2947,-1.6656152
2948,-1.4281689
2949,-1.0200895
2950,-0.11958602
2951,0.19645346
2952,0.11236011
2953,0.136799
2954,0.1831146
2955,0.11482262
2956,0.13970984
2957,0.064160771
2958,-0.076424762
2959,0.11964848
2960,0.047738227
2961,-0.08808512
2962,-0.16747814
2963,-0.087828767
2964,-0.22899225
2965,-0.19830621
2966,-0.21673233
2967,-0.29271651
2968,-0.3773239
2969,-0.4581482
2970,-0.58024211
2971,-0.59794755
2972,-0.55775502
2973,-0.67927402
2974,-0.71476452
2975,-0.6567193
2976,-0.74916196
2977,-0.74145114
2978,-0.77261964
2979,-0.79419029
2980,-0.62048718
2981,-0.52279613
2982,-0.38184607
2983,-0.42528796
2984,-0.46277407
2985,-0.29762258
2986,-0.14937218
2987,-0.089397028
2988,-0.067538487
2989,-0.035564051
2990,0.012312978
2991,0.0079290433
2992,0.046252931
2993,-0.0015729175
2994,0.17067388
2995,0.14817795
2996,0.153269
2997,0.13371903
2998,0.079181531
2999,0.23618725
3000,0.18735324
3001,0.19535187
3002,0.25764088
3003,0.19105036
3004,0.21327837
3005,0.23697164
3006,0.32188255
3007,0.30056747
3008,0.34675211
3009,0.38094928
3010,0.42678163
3011,0.54205084
3012,0.52227832
3013,0.32599425
3014,0.37182427
3015,0.39498241
3016,0.42673111
3017,0.42251283
3018,0.40811466
3019,0.48273231
3020,0.33924359
3021,0.25099616
3022,0.31871522
3023,0.32999429
3024,0.43766247
3025,0.28029477
3026,0.36635703
3027,0.20082264
3028,0.25016819
3029,0.20604908
3030,0.2372067
3031,0.25328282
3032,0.11064083
3033,0.16059341
3034,0.1884015
3035,0.29655201
3036,0.64633559
3037,0.79985963
3038,1.0738657
3039,1.0875983
3040,1.2857696
3041,1.5006405
3042,1.8099441
3043,2.2429331
3044,2.1416854
3045,1.9899798
3046,1.7838311
3047,1.7000464
3048,1.4599993
3049,1.1057346
3050,0.86617063
3051,0.15670857
3052,-0.37163408
3053,-0.51717482
3054,-0.57012049
3055,-0.71142397
3056,-0.64748321
3057,-0.80954028
3058,-0.75343851
3059,-0.76874808
3060,-0.75939516
3061,-0.75445924
3062,-0.68913011
3063,-0.74411385
3064,-0.72209755
3065,-0.77188463
3066,-0.71977463
3067,-0.70657003
3068,-0.56007946
3069,-0.1669868
3070,0.37100183
3071,0.54841757
3072,0.93738971
3073,1.2248676
3074,1.2933998
3075,1.1836717
3076,1.0941214
3077,1.5880921
3078,1.8711056
3079,-1.2487458
3080,-1.862747
3081,-3.2036327
3082,-3.6341531
3083,-4.1693744
3084,-3.8880809
3085,-3.2758404
3086,-2.1004304
3087,-1.6623015
3088,-1.4397477
3089,-0.75266185
3090,-0.44549375
3091,-0.45413288
3092,-0.4761388
3093,-0.50550685
3094,-0.49158515
3095,-0.34366539
3096,-0.40914391
3097,-0.4219994
3098,-0.44125915
3099,-0.5194886
3100,-0.33920061
3101,-0.3773344
3102,-0.35424806
3103,-0.35669867
3104,-0.49676656
3105,-0.49409601
3106,-0.36678391
3107,-0.36253913
3108,-0.44196693
3109,-0.32685485
3110,-0.34194356
3111,-0.37759439
3112,-0.40221446
3113,-0.34010565
3114,-0.41440617
3115,-0.3196923
3116,-0.27434111
3117,-0.35593264
3118,-0.27299992
3119,-0.20626303
3120,-0.15637955
3121,-0.1435254
3122,-0.11830015
3123,-0.23490256
3124,-0.10315541
3125,-0.00878327
3126,0.049864226
3127,-0.028025459
3128,0.034272462
3129,0.057320583
3130,-0.016121597
3131,-0.00208756
3132,0.00059489001
3133,-0.0038257248
3134,0.046449214
3135,-0.0055238788
3136,-0.010946276
3137,0.017766163
3138,-0.0020078429
3139,-0.081315893
3140,-0.014966009
3141,-0.023964874
3142,-0.012726303
3143,-0.029349474
3144,0.086248247
3145,0.065663412
3146,-0.058436044
3147,0.16384351
3148,0.27792196
3149,0.17409647
3150,0.19389366
3151,0.27812106
3152,0.38732614
3153,0.41718472
3154,0.38385835
3155,0.48625233
3156,0.48641375
3157,0.49536625
3158,0.58442818
3159,0.62554179
3160,0.66185102
3161,0.68364795
3162,0.68090778
3163,0.59428431
3164,0.5372284
3165,0.56968507
3166,0.57739664
3167,0.53179604
3168,0.59463077
3169,0.6207137
3170,0.51427007
3171,0.47037098
3172,0.49686007
3173,0.58112647
3174,0.530719
3175,0.81476495
3176,1.0114023
3177,1.0836272
3178,1.3344553
3179,1.4147444
3180,1.6723684
3181,1.9719198
3182,2.1296933
3183,2.1805321
3184,2.0759711
3185,1.8886251
3186,1.7297516
3187,1.4535628
3188,1.3362974
3189,1.0414771
3190,0.88400103
3191,0.58579182
3192,0.11928472
3193,0.050663186
3194,-0.044869993
3195,-0.090907327
3196,-0.0439102
3197,0.051939961
3198,-0.22551987
3199,-0.19840684
3200,-0.042490291
3201,-0.11682405
3202,-0.12270507
3203,-0.21550777
3204,-0.11633065
3205,-0.096284751
3206,-0.013903083
3207,0.095774707
3208,0.21762874
3209,0.75541792
3210,1.2690534
3211,1.2328221
3212,0.90270118
3213,0.37600261
3214,-0.31828068
3215,-0.67593442
3216,-0.84912217
3217,-0.78116739
3218,-0.302293
3219,-0.61002273
3220,-0.99857184
3221,-2.8897248
3222,-3.3877792
3223,-3.5106386
3224,-2.9968963
3225,-2.2804124
3226,-1.700196
3227,-1.5611074
3228,-1.0948267
3229,-0.92235086
3230,-0.93785499
3231,-0.8784832
3232,-0.88296422
3233,-0.88192933
3234,-0.90866771
3235,-0.82307862
3236,-0.85934335
3237,-0.8821804
3238,-0.87391177
3239,-0.88044505
3240,-0.80895567
3241,-0.88683291
3242,-0.92602309
3243,-0.90180834
3244,-0.92022015
3245,-0.92535499
3246,-0.88331768
3247,-0.9317092
3248,-0.99367519
3249,-0.91165229
3250,-0.96074319
3251,-0.99347461
3252,-1.0409567
3253,-1.0739878
3254,-1.008234
3255,-1.0061943
3256,-1.0304824
3257,-0.95906716
3258,-0.8906352
3259,-0.8781486
3260,-0.77507971
3261,-0.6870353
3262,-0.66475871
3263,-0.5953013
3264,-0.50909821
3265,-0.42626407
3266,-0.44355598
3267,-0.39454227
3268,-0.4168346
3269,-0.38282671
3270,-0.28068833
3271,-0.28925165
3272,-0.25998195
3273,-0.2715064
3274,-0.24758514
3275,-0.15726946
3276,-0.23002316
3277,-0.13092003
3278,-0.15092381
3279,-0.1122746
3280,-0.066530843
3281,-0.068022442
3282,-0.025683045
3283,-0.064316853
3284,0.073704771
3285,0.082570633
3286,0.067146488
3287,0.15832731
3288,0.2098914
3289,0.22255959
3290,0.28371631
3291,0.26865946
3292,0.24374031
3293,0.3335854
3294,0.36023081
3295,0.42749618
3296,0.41436887
3297,0.39189828
3298,0.4040615
3299,0.49267965
3300,0.45348147
3301,0.4041807
3302,0.51681136
3303,0.45885891
3304,0.46972151
3305,0.4750004
3306,0.46926579
3307,0.45131178
3308,0.50014
3309,0.52043581
3310,0.49295983
3311,0.53082938
3312,0.56105319
3313,0.5511731
3314,0.65178524
3315,0.6418098
3316,0.73581919
3317,0.87732018
3318,0.97527227
3319,1.0435107
3320,1.1718094
3321,1.3105026
3322,1.3792612
3323,1.4075101
3324,1.406604
3325,1.3662523
3326,1.2347971
3327,1.229052
3328,1.1408462
3329,1.0293558
3330,0.86943579
3331,0.70750348
3332,0.62642132
3333,0.57351075
3334,0.57377744
3335,0.56218941
3336,0.59570127
3337,0.5855605
3338,0.64276998
3339,0.63787059
3340,0.58150792
3341,0.62787035
3342,0.63706215
3343,0.66031076
3344,0.73367111
3345,0.74197698
3346,0.73846322
3347,0.89510572
3348,1.1456675
3349,1.3816389
3350,1.4203026
3351,1.3371892
3352,1.3936424
3353,1.3733062
3354,1.312156
3355,1.2463692
3356,1.4304958
3357,1.6350927
3358,1.5209621
3359,0.65421129
3360,-0.28834122
3361,-2.2725454
3362,-3.6660708
3363,-4.2827374
3364,-3.7242411
3365,-2.8432282
3366,-1.8749167
3367,-1.5312512
3368,-1.1943884
3369,-0.54127413
3370,-0.39303124
3371,-0.43113007
3372,-0.38249414
3373,-0.3855271
3374,-0.39781294
3375,-0.38000766
3376,-0.44965858
3377,-0.38291185
3378,-0.40528287
3379,-0.44655153
3380,-0.41801188
3381,-0.52242672
3382,-0.58660627
3383,-0.54189127
3384,-0.52803501
3385,-0.630458
3386,-0.67773875
3387,-0.78250762
3388,-0.75699531
3389,-0.80657163
3390,-0.81540982
3391,-0.94057025
3392,-0.92872992
3393,-0.8500484
3394,-1.0483438
3395,-1.0571464
3396,-0.99891405
3397,-0.8496265
3398,-0.81930128
3399,-0.94959214
3400,-0.73403551
3401,-0.69334927
3402,-0.69371939
3403,-0.57494089
3404,-0.52024087
3405,-0.37474237
3406,-0.27194483
3407,-0.23045706
3408,-0.16232497
3409,-0.12311519
3410,-0.12781058
3411,-0.038097814
3412,0.025011559
3413,0.027463935
3414,-0.033556658
3415,-0.063766352
3416,0.019662478
3417,0.0036088755
3418,0.074925119
3419,0.05902338
3420,0.054363708
3421,0.055622915
3422,0.19214859
3423,0.18491272
3424,0.19466048
3425,0.24265443
3426,0.19634445
3427,0.25615634
3428,0.29341576
3429,0.35688955
3430,0.3795301
3431,0.3641632
3432,0.44100451
3433,0.51529898
3434,0.54605908
3435,0.58395612
3436,0.56825452
3437,0.56723801
3438,0.52694035
3439,0.45524263
3440,0.55270319
3441,0.54003814
3442,0.4184192
3443,0.43464404
3444,0.38302869
3445,0.47567602
3446,0.55452503
3447,0.44338743
3448,0.44678474
3449,0.33347381
3450,0.30718029
3451,0.42123391
3452,0.37668933
3453,0.44819125
3454,0.5904967
3455,0.59361885
3456,0.73164423
3457,0.92258976
3458,1.0506714
3459,1.1494727
3460,1.385669
3461,1.5852644
3462,2.0063573
3463,1.8395934
3464,1.7441506
3465,1.6606667
3466,1.4390026
3467,1.3449961
3468,1.2078937
3469,0.95911902
3470,0.57248896
3471,0.28502133
3472,0.019181261
3473,-0.16476017
3474,-0.17150074
3475,-0.21064068
3476,-0.19101575
3477,-0.19450168
3478,-0.22492012
3479,-0.081659856
3480,-0.14759527
3481,-0.19635249
3482,-0.27733297
3483,-0.18988301
3484,-0.13429032
3485,-0.26244434
3486,-0.19728138
3487,-0.080188709
3488,0.092408728
3489,0.65875227
3490,1.1474335
3491,1.16232
3492,1.2117657
3493,1.5263299
3494,1.7705728
3495,1.6156545
3496,1.2932948
3497,1.2431312
3498,1.7227841
3499,1.2959242
3500,0.53974315
3501,0.66577827
3502,-1.2755868
3503,-2.8466725
3504,-3.4999203
3505,-4.3828256
3506,-3.9606595
3507,-2.6571292
3508,-1.9283256
3509,-1.6057499
3510,-0.49802437
3511,-0.15959131
3512,-0.26229433
3513,-0.2158066
3514,-0.35805719
3515,-0.12267895
3516,-0.19591795
3517,-0.23573009
3518,-0.25887652
3519,-0.28534302
3520,-0.27224294
3521,-0.20864832
3522,-0.35890051
3523,-0.33653484
3524,-0.30833428
3525,-0.47299037
3526,-0.46103638
3527,-0.6779567
3528,-0.5569024
3529,-0.63148847
3530,-0.64732156
3531,-0.62686692
3532,-0.74758454
3533,-0.81791668
3534,-0.87850089
3535,-1.0072365
3536,-0.88886279
3537,-0.91875823
3538,-0.88380344
3539,-0.91614426
3540,-0.78574266
3541,-0.74282516
3542,-0.77872712
3543,-0.52738876
3544,-0.45069637
3545,-0.33725634
3546,-0.44836277
3547,-0.20223055
3548,-0.052745098
3549,0.050060651
3550,0.03123348
3551,0.019030958
3552,0.077311606
3553,0.15275405
3554,0.22407072
3555,0.18285287
3556,0.17402101
3557,0.21317111
3558,0.19662193
3559,0.30386597
3560,0.32717282
3561,0.24945462
3562,0.35215131
3563,0.28454264
3564,0.41482284
3565,0.36379539
3566,0.37091726
3567,0.44168846
3568,0.5293475
3569,0.51479212
3570,0.59539387
3571,0.61620006
3572,0.6227228
3573,0.67989023
3574,0.69780189
3575,0.66438999
3576,0.60376282
3577,0.58132698
3578,0.54369895
3579,0.60798227
3580,0.5750027
3581,0.5818646
3582,0.45329898
3583,0.54875176
3584,0.46008439
3585,0.40377508
3586,0.43668718
3587,0.30319839
3588,0.52220955
3589,0.42011605
3590,0.40439069
3591,0.42606907
3592,0.3229988
3593,0.38252697
3594,0.37488573
3595,0.24600978
3596,0.37031417
3597,0.33645748
3598,0.31923742
3599,0.28739721
3600,0.44056391
3601,0.5605358
3602,0.6725918
3603,0.98308367
3604,1.250987
3605,1.2321225
3606,1.6037983
3607,2.0192474
3608,2.3689359
3609,2.4217417
3610,2.3249546
3611,2.0540158
3612,1.7484411
3613,1.469141
3614,0.95481296
3615,0.25551384
3616,-0.25678169
3617,-0.31245957
3618,-0.46307532
3619,-0.35810362
3620,-0.36192758
3621,-0.31974422
3622,-0.4284515
3623,-0.29101471
3624,-0.4165944
3625,-0.45404297
3626,-0.37163922
3627,-0.36891769
3628,-0.29577989
3629,-0.46945451
3630,-0.32955958
3631,-0.23512916
3632,0.57473238
3633,1.0586076
3634,0.88663354
3635,1.2658479
3636,0.89577687
3637,-0.015879698
3638,-0.70528326
3639,0.037302077
3640,-1.1812944
3641,-2.3030416
3642,-2.8690724
3643,-3.9477131
3644,-4.5017257
3645,-4.172636
3646,-2.8633193
3647,-1.8925259
3648,-1.6618946
3649,-0.90185366
3650,-0.42296226
3651,-0.35216932
3652,-0.31962272
3653,-0.3624531
3654,-0.32147097
3655,-0.31601848
3656,-0.30239989
3657,-0.29278875
3658,-0.31629042
3659,-0.37401649
3660,-0.40876531
3661,-0.37756213
3662,-0.45878602
3663,-0.32972626
3664,-0.35042867
3665,-0.3905706
3666,-0.37661534
3667,-0.49349652
3668,-0.53217646
3669,-0.52083634
3670,-0.5268396
3671,-0.58827527
3672,-0.70819185
3673,-0.58291442
3674,-0.67049856
3675,-0.6965283
3676,-0.60066302
3677,-0.66001072
3678,-0.55897566
3679,-0.5096429
3680,-0.48079228
3681,-0.43953457
3682,-0.23169533
3683,-0.27486931
3684,-0.13580341
3685,-0.045989237
3686,-0.037749591
3687,-0.024957385
3688,0.041773124
3689,0.094939229
3690,0.036344124
3691,0.079783582
3692,-0.010793479
3693,-0.020771365
3694,0.062471703
3695,0.052274774
3696,0.034358128
3697,0.076343822
3698,0.11036141
3699,0.15902515
3700,0.15518926
3701,0.084530364
3702,0.14621472
3703,0.18893519
3704,0.17280614
3705,0.22756541
3706,0.34336578
3707,0.35084977
3708,0.37532397
3709,0.50768326
3710,0.52078155
3711,0.50579043
3712,0.62816008
3713,0.60065274
3714,0.61150578
3715,0.76158247
3716,0.72790847
3717,0.71032176
3718,0.72544749
3719,0.72428615
3720,0.69950391
3721,0.63137928
3722,0.65440274
3723,0.64315478
3724,0.55239524
3725,0.55395403
3726,0.49972895
3727,0.48831783
3728,0.5446444
3729,0.46806798
3730,0.45689787
3731,0.34836897
3732,0.39454985
3733,0.37838279
3734,0.44911324
3735,0.44913234
3736,0.47119333
3737,0.60283921
3738,0.72805079
3739,0.95745114
3740,0.98208292
3741,1.194129
3742,1.3256549
3743,1.5597034
3744,1.8182718
3745,1.7785442
3746,1.7723479
3747,1.4862491
3748,1.2911061
3749,1.1543137
3750,0.94550311
3751,0.70445071
3752,0.37119435
3753,0.12273796
3754,-0.16343212
3755,-0.23602729
3756,-0.25884412
3757,-0.21934264
3758,-0.23623563
3759,-0.26963146
3760,-0.27091142
3761,-0.24565979
3762,-0.2468644
3763,-0.28418314
3764,-0.2929094
3765,-0.24888735
3766,-0.23173258
3767,-0.2139102
3768,-0.13051102
3769,-0.0025714434
3770,0.52720359
3771,1.3251665
3772,1.3793144
3773,1.5430673
3774,1.7885211
3775,1.5066106
3776,0.77410683
3777,-0.13012066
3778,-0.28587388
3779,-0.45100638
3780,1.5319341
3781,0.92006083
3782,-0.49019514
3783,-2.0132361
3784,-2.8349715
3785,-3.4859333
3786,-3.2619857
3787,-2.3102226
3788,-1.7047485
3789,-1.678492
3790,-1.0249631
3791,-0.46375571
3792,-0.4059883
3793,-0.47395269
3794,-0.5444704
3795,-0.54019877
3796,-0.38263593
3797,-0.52568892
3798,-0.52663255
3799,-0.48389023
3800,-0.52939911
3801,-0.60754668
3802,-0.53614193
3803,-0.55977808
3804,-0.63062482
3805,-0.64403399
3806,-0.71965775
3807,-0.74621216
3808,-0.80129161
3809,-0.83125147
3810,-0.93636305
3811,-0.99338465
3812,-1.0413056
3813,-0.99045376
3814,-1.0151654
3815,-1.1421224
3816,-1.0958733
3817,-1.1345867
3818,-1.2256366
3819,-1.2343389
3820,-1.032637
3821,-1.0616449
3822,-0.96872443
3823,-0.89106257
3824,-0.89706557
3825,-0.69918268
3826,-0.56970454
3827,-0.48672667
3828,-0.43495531
3829,-0.44529865
3830,-0.33163052
3831,-0.40143314
3832,-0.25576798
3833,-0.29564955
3834,-0.1822898
3835,-0.26271806
3836,-0.20728578
3837,-0.14138264
3838,-0.2307739
3839,-0.2701736
3840,-0.11682102
3841,-0.066774103
3842,-0.085408819
3843,-0.075672403
3844,-0.10625849
3845,-0.056186868
3846,-0.056800564
3847,0.032967904
3848,0.07974603
3849,0.066111301
3850,0.11430137
3851,0.1444909
3852,0.20035268
3853,0.19316619
3854,0.21511008
3855,0.19237102
3856,0.21973675
3857,0.30044423
3858,0.35348397
3859,0.37657857
3860,0.28097237
3861,0.29525002
3862,0.32323472
3863,0.30642285
3864,0.19566208
3865,0.33184921
3866,0.31566277
3867,0.22959631
3868,0.27106936
3869,0.17288257
3870,0.23228515
3871,0.27666619
3872,0.27941326
3873,0.25461311
3874,0.25710105
3875,0.23943788
3876,0.25534277
3877,0.31346393
3878,0.32302693
3879,0.5482447
3880,0.66351336
3881,0.93341219
3882,1.11337
3883,1.2649505
3884,1.3222861
3885,1.54133
3886,1.9338962
3887,2.1014058
3888,2.1077607
3889,1.8906618
3890,1.7563078
3891,1.4807247
3892,1.2897951
3893,1.1097743
3894,0.79368808
3895,0.39240792
3896,0.21936851
3897,0.15716344
3898,0.18283827
3899,0.15403899
3900,0.18804016
3901,0.2415642
3902,0.16335092
3903,0.16571961
3904,0.21379007
3905,0.27231647
3906,0.29743529
3907,0.29761111
3908,0.3461292
3909,0.37220553
3910,0.5237021
3911,1.0161069
3912,1.2796179
3913,1.3614617
3914,1.7812398
3915,1.9776585
3916,2.2260395
3917,1.6367639
3918,1.8501208
3919,1.9345383
3920,-3.5278988
3921,-5.1176214
3922,-4.6348854
3923,-4.2264821
3924,-3.1004608
3925,-1.8977234
3926,-1.3063794
3927,-0.95246355
3928,-0.22899584
3929,-0.096762767
3930,-0.10039939
3931,-0.14531562
3932,-0.22673238
3933,-0.20863061
3934,-0.11870038
3935,-0.12326716
3936,-0.11270093
3937,-0.092833172
3938,-0.11836132
3939,-0.16458403
3940,-0.20724292
3941,-0.2354725
3942,-0.20329389
3943,-0.31138667
3944,-0.20927968
3945,-0.33625295
3946,-0.32384776
3947,-0.3034379
3948,-0.46315128
3949,-0.46810003
3950,-0.52522517
3951,-0.51709173
3952,-0.49090168
3953,-0.51979725
3954,-0.4829972
3955,-0.52502126
3956,-0.47864142
3957,-0.44987616
3958,-0.37106151
3959,-0.38265832
3960,-0.3149348
3961,-0.27689817
3962,-0.19122278
3963,-0.063774495
3964,0.010648972
3965,0.12829405
3966,0.11960891
3967,0.05618445
3968,0.1240261
3969,0.029956025
3970,0.12554694
3971,0.068790394
3972,0.11145748
3973,0.13217555
3974,0.130284
3975,0.25444573
3976,0.14509803
3977,0.11610713
3978,0.18401278
3979,0.17098627
3980,0.21093189
3981,0.16077589
3982,0.19382443
3983,0.24373129
3984,0.16759281
3985,0.23573399
3986,0.21708743
3987,0.36530803
3988,0.40437415
3989,0.49726146
3990,0.47388264
3991,0.49958306
3992,0.57845532
3993,0.55124725
3994,0.53082538
3995,0.51126302
3996,0.56318346
3997,0.49229337
3998,0.53199966
3999,0.39049468
4000,0.41995837
4001,0.45222366
4002,0.4677941
4003,0.34265229
4004,0.34846811
4005,0.36427926
4006,0.45477018
4007,0.35674341
4008,0.25977291
4009,0.20937706
4010,0.3295839
4011,0.35632333
4012,0.34212987
4013,0.45238258
4014,0.38016142
4015,0.57838519
4016,0.75379566
4017,0.94876976
4018,1.1072944
4019,1.2456671
4020,1.4418087
4021,1.6185204
4022,1.9077949
4023,1.7563464
4024,1.751461
4025,1.6080901
4026,1.5092519
4027,1.1400909
4028,1.0280192
4029,0.76389657
4030,0.30182115
4031,0.097500333
4032,-0.28198831
4033,-0.3168763
4034,-0.30189454
4035,-0.42390934
4036,-0.35410328
4037,-0.46057341
4038,-0.42164963
4039,-0.37022628
4040,-0.36738084
4041,-0.33985916
4042,-0.49681088
4043,-0.43025647
4044,-0.37415261
4045,-0.32147476
4046,-0.33527052
4047,-0.25728506
4048,-0.033733438
4049,0.35022026
4050,0.68510854
4051,0.75605137
4052,0.96795751
4053,0.97546498
4054,0.91487281
4055,0.64002228
4056,0.51170596
4057,0.52346601
4058,0.80512981
4059,-0.91239468
4060,-0.77586665
4061,-3.4141412
4062,-4.0897041
4063,-4.0645668
4064,-4.0340122
4065,-3.6645482
4066,-2.4578752
4067,-1.2954524
4068,-1.2498051
4069,-0.83788186
4070,-0.25690192
4071,-0.22376786
4072,-0.31944246
4073,-0.24578289
4074,-0.2911414
4075,-0.3124142
4076,-0.28363454
4077,-0.24817583
4078,-0.24672239
4079,-0.31293595
4080,-0.27232791
4081,-0.28380233
4082,-0.36983097
4083,-0.32725332
4084,-0.32802597
4085,-0.3559002
4086,-0.31206165
4087,-0.43861477
4088,-0.41395306
4089,-0.42674374
4090,-0.40046796
4091,-0.52517868
4092,-0.48744114
4093,-0.48894671
4094,-0.52939568
4095,-0.56711283
4096,-0.61573041
4097,-0.45669982
4098,-0.45863346
4099,-0.49072884
4100,-0.45091905
4101,-0.3928356
4102,-0.25424995
4103,-0.25761573
4104,-0.19182119
4105,-0.13785891
4106,-0.10702689
4107,-0.069024033
4108,-0.023093408
4109,-0.025411365
4110,0.046335772
4111,0.022994897
4112,-0.04654788
4113,-0.039304581
4114,-0.094578251
4115,-0.012033971
4116,-0.085144908
4117,-0.0604547
4118,0.021065185
4119,0.013211655
4120,0.055273358
4121,-0.0027854257
4122,0.069090761
4123,0.14216315
4124,0.095263275
4125,0.16341318
4126,0.18068393
4127,0.19201906
4128,0.20937459
4129,0.26570768
4130,0.3131867
4131,0.23153509
4132,0.2881695
4133,0.37111119
4134,0.38302611
4135,0.42409379
4136,0.37787192
4137,0.33522007
4138,0.46049148
4139,0.40768661
4140,0.27994632
4141,0.42587356
4142,0.43725158
4143,0.51838351
4144,0.42398827
4145,0.35165145
4146,0.35484225
4147,0.37693674
4148,0.28507763
4149,0.41116385
4150,0.38251967
4151,0.28237869
4152,0.4431978
4153,0.46151259
4154,0.61937302
4155,0.70372827
4156,0.93037059
4157,1.1643901
4158,1.1758863
4159,1.3012435
4160,1.5957675
4161,1.7844234
4162,1.7908844
4163,1.710692
4164,1.6985941
4165,1.5589452
4166,1.3676942
4167,1.223756
4168,0.95100455
4169,0.61745581
4170,0.22432246
4171,-0.0018565749
4172,-0.12858619
4173,-0.19396516
4174,-0.0084248823
4175,-0.058990739
4176,-0.10641843
4177,0.049975619
4178,-0.10216298
4179,-0.026576279
4180,-0.046325257
4181,-0.1208893
4182,-0.010477954
4183,-0.079140053
4184,-0.1053885
4185,-0.0063806108
4186,0.0530283
4187,0.19052557
4188,0.34287154
4189,0.86578374
4190,1.1419171
4191,1.3063473
4192,1.4653673
4193,1.3870172
4194,1.3206688
4195,0.88216926
4196,0.96623098
4197,1.0659013
4198,0.44012228
4199,-1.9802592
4200,-0.03594174
4201,-0.27819632
4202,-0.38375438
4203,-0.3727249
4204,-0.13322346
4205,-0.27698825
4206,-0.42173103
4207,-0.34688683
4208,-0.17848876
4209,-0.23167341
4210,-0.33658328
4211,-0.36185316
4212,-0.39472756
4213,-0.27869383
4214,-0.43282635
4215,-0.47154981
4216,-0.25778203
4217,-0.2212151
4218,-0.50988523
4219,-0.61322237
4220,-0.52728633
4221,-0.42310865
4222,-0.35329614
4223,-0.43583758
4224,-0.47465857
4225,-0.56081595
4226,-0.6298408
4227,-0.32000241
4228,-0.16477071
4229,-0.12716885
4230,-0.2542404
4231,-0.38167703
4232,-0.18103816
4233,-0.079146549
4234,0.0055061941
4235,0.17496344
4236,0.056961658
4237,0.15747088
4238,0.19106629
4239,0.1036615
4240,0.081361279
4241,-0.00043422405
4242,0.083364445
4243,0.26657818
4244,0.19222838
4245,0.068638075
4246,-0.039912439
4247,-0.010877671
4248,0.084594449
4249,0.11324985
4250,0.31539678
4251,0.048520299
4252,-0.057953596
4253,0.13753469
4254,0.28042693
4255,0.096707309
4256,0.016027691
4257,0.08250228
4258,0.25014234
4259,0.41530302
4260,0.51669519
4261,0.57008307
4262,0.52925349
4263,0.62179339
4264,0.65384684
4265,0.68988785
4266,0.66758986
4267,0.76422407
4268,0.75545274
4269,0.61065201
4270,0.53165018
4271,0.56035374
4272,0.48819073
4273,0.61981582
4274,0.68931228
4275,0.51892443
4276,0.50861831
4277,0.53729969
4278,0.83561964
4279,1.0504299
4280,1.0520813
4281,1.0422228
4282,1.32396
4283,1.5725561
4284,1.836701
4285,2.1411136
4286,2.0524633
4287,1.9747949
4288,1.9915372
4289,1.7877544
4290,1.3901971
4291,1.0999058
4292,0.82331555
4293,0.69379178
4294,0.37016199
4295,0.10351141
4296,-0.15145786
4297,-0.30922505
4298,-0.3255634
4299,-0.29672621
4300,-0.42837449
4301,-0.27819081
4302,-0.31271101
4303,-0.36018885
4304,-0.33416367
4305,-0.25912905
4306,-0.073196109
4307,-0.29171138
4308,-0.49868986
4309,-0.41435682
4310,-0.11853838
4311,0.33292736
4312,0.86438664
4313,1.1097002
4314,0.88892184
4315,0.93933787
4316,0.99555397
4317,0.8067606
4318,0.51315745
4319,0.10589958
4320,0.47615629
4321,0.68152015
4322,-0.1672576
4323,-1.6829375
4324,-2.7097641
4325,-3.4355172
4326,-4.2796184
4327,-4.2900157
4328,-3.6475984
4329,-2.2284106
4330,-1.6046026
4331,-1.4703591
4332,-0.69271005
4333,-0.47049683
4334,-0.45414559
4335,-0.34407644
4336,-0.41212822
4337,-0.41674938
4338,-0.24737942
4339,-0.34628536
4340,-1.3132285
4341,-1.9628833
4342,-0.84626258
4343,-1.4005536
4344,-1.3682153
4345,-1.6259806
4346,-1.3467619
4347,-0.97069563
4348,-0.29910008
4349,-0.01579098
4350,0.28759577
4351,0.44026139
4352,0.51403801
4353,0.80093535
4354,0.87091838
4355,0.92139713
4356,1.0110805
4357,1.0452318
4358,1.1832578
4359,1.2097477
4360,1.311628
4361,1.3760637
4362,1.393931
4363,1.3324992
4364,1.5412806
4365,1.5794174
4366,1.5161994
4367,1.5829409
4368,1.5380828
4369,1.6238002
4370,1.6252494
4371,1.5421308
4372,1.5419687
4373,1.5073045
4374,1.4092127
4375,1.2950179
4376,1.1165366
4377,1.0592253
4378,1.0624859
4379,0.93777282
4380,0.66971788
4381,0.50058299
4382,0.50105465
4383,0.47631491
4384,0.46703381
4385,0.46638023
4386,0.36759587
4387,0.40084873
4388,0.39112101
4389,0.48143856
4390,0.5459974
4391,0.45298527
4392,0.48543593
4393,0.50091323
4394,0.39955962
4395,0.40103803
4396,0.47223301
4397,0.42087129
4398,0.35209144
4399,0.40504492
4400,0.36221199
4401,0.19937785
4402,0.24458334
4403,0.12712121
4404,0.15831568
4405,0.17077731
4406,0.22411919
4407,0.14766888
4408,0.077334996
4409,0.08308718
4410,0.12218481
4411,0.15703363
4412,0.12523404
4413,0.11804396
4414,0.066736873
4415,-0.00072671436
4416,-0.0037090883
4417,-0.11378313
4418,0.00366831
4419,-0.01684882
4420,0.043134565
4421,0.0076624084
4422,-0.023449371
4423,-0.043156341
4424,-0.073778098
4425,-0.11633432
4426,-0.1031898
4427,-0.11669772
4428,-0.16597833
4429,-0.23050498
4430,-0.27657196
4431,-0.19884823
4432,-0.25443444
4433,-0.28521273
4434,-0.23016571
4435,-0.19552775
4436,-0.29783595
4437,-0.31881543
4438,-0.35075548
4439,-0.37272823
4440,-0.36130256
4441,-0.41187502
4442,-0.3518596
4443,-0.36031775
4444,-0.37256816
4445,-0.29931491
4446,-0.19609028
4447,-0.076184845
4448,0.19939178
4449,0.45701588
4450,0.69059228
4451,0.95615584
4452,0.92102302
4453,0.8538653
4454,0.67936159
4455,0.34334548
4456,0.039061087
4457,-0.23579707
4458,-0.69348205
4459,-1.1577509
4460,-1.3786883
4461,-1.6035594
4462,-1.5251421
4463,-1.4711638
4464,-1.5116522
4465,-1.6084322
4466,-1.64717
4467,-1.6966136
4468,-1.7331055
4469,-1.6869595
4470,-1.741845
4471,-1.4790494
4472,-0.69129949
4473,-0.44632661
4474,-0.78760618
4475,-1.7799741
4476,-2.4583453
4477,-3.057529
4478,-2.4051707
4479,-2.7488784
4480,-2.0956639
4481,-4.182035
4482,-4.3009498
4483,-4.2473509
4484,-3.8246242
4485,-2.9645634
4486,-1.7487328
4487,-1.449283
4488,-1.0171378
4489,-0.39008677
4490,-0.29072688
4491,-0.26052276
4492,-0.23750703
4493,-0.26549275
4494,-0.19828583
4495,-0.23660331
4496,-0.20368769
4497,-0.10487981
4498,-0.21819631
4499,-0.22008855
4500,-0.18128266
4501,-0.18361951
4502,-0.20982728
4503,-0.24887323
4504,-0.31902542
4505,-0.17285097
4506,-0.26864919
4507,-0.33467946
4508,-0.28681933
4509,-0.41692742
4510,-0.38194531
4511,-0.44086993
4512,-0.52672186
4513,-0.43093113
4514,-0.50947227
4515,-0.49597668
4516,-0.3952438
4517,-0.39171115
4518,-0.36536185
4519,-0.3609917
4520,-0.30909023
4521,-0.21331618
4522,-0.12583758
4523,-0.021390649
4524,-0.00018562938
4525,0.15293745
4526,0.1049435
4527,0.14463593
4528,0.16495015
4529,0.24759814
4530,0.14809613
4531,0.16675634
4532,0.13713657
4533,0.13129427
4534,0.10536733
4535,0.11716509
4536,0.14491129
4537,0.22432627
4538,0.20799413
4539,0.18391872
4540,0.30754224
4541,0.21131498
4542,0.2117446
4543,0.24568629
4544,0.29402975
4545,0.27200059
4546,0.29116733
4547,0.41455202
4548,0.44032737
4549,0.5027237
4550,0.44864757
4551,0.50139391
4552,0.49333595
4553,0.46928612
4554,0.5929762
4555,0.43152913
4556,0.60919444
4557,0.6225175
4558,0.58681271
4559,0.53970837
4560,0.47911694
4561,0.44646713
4562,0.49923793
4563,0.4937601
4564,0.41344355
4565,0.41231733
4566,0.41506048
4567,0.29492111
4568,0.34250948
4569,0.40793198
4570,0.33023249
4571,0.46374836
4572,0.40314981
4573,0.42510081
4574,0.55648479
4575,0.70465059
4576,0.82816734
4577,1.0691053
4578,1.0935423
4579,1.3437518
4580,1.5543795
4581,1.8183417
4582,1.8572515
4583,1.849837
4584,1.8316143
4585,1.5866426
4586,1.3741176
4587,1.1134232
4588,0.79445511
4589,0.47582202
4590,0.14329084
4591,-0.16554804
4592,-0.27541546
4593,-0.40622216
4594,-0.44700204
4595,-0.43605087
4596,-0.48267886
4597,-0.48197522
4598,-0.4206864
4599,-0.55994179
4600,-0.62854377
4601,-0.48475057
4602,-0.38145165
4603,-0.40206931
4604,-0.48160981
4605,-0.4484446
4606,-0.41002531
4607,-0.33670383
4608,-0.067116417
4609,0.38936092
4610,0.81561905
4611,0.85431636
4612,1.0248215
4613,1.1621182
4614,0.99027401
4615,0.71492711
4616,0.54892886
4617,0.82619628
4618,0.82778817
4619,-1.4804925
4620,-0.65713662
4621,-1.4969218
4622,-2.0119899
4623,-2.4230953
4624,-2.6757808
4625,-2.6018607
4626,-2.1598373
4627,-1.7090852
4628,-1.688696
4629,-1.4958077
4630,-1.1259194
4631,-1.0565501
4632,-1.0455331
4633,-1.0517574
4634,-1.0651333
4635,-1.048416
4636,-1.0139468
4637,-1.0755722
4638,-1.0589594
4639,-0.9871264
4640,-0.97901217
4641,-0.99743505
4642,-0.97482263
4643,-1.0195989
4644,-0.99205812
4645,-0.94525342
4646,-0.95425021
4647,-0.98097029
4648,-0.96693412
4649,-0.97539749
4650,-0.91961537
4651,-0.92278445
4652,-0.9354831
4653,-0.94447603
4654,-0.97372083
4655,-0.95864742
4656,-0.92900695
4657,-0.89290367
4658,-0.92300977
4659,-0.85828141
4660,-0.82267561
4661,-0.85735523
4662,-0.83722458
4663,-0.74599086
4664,-0.73071174
4665,-0.69663011
4666,-0.63155637
4667,-0.54986399
4668,-0.51378843
4669,-0.46025407
4670,-0.42979258
4671,-0.39054221
4672,-0.33958171
4673,-0.28790892
4674,-0.30171789
4675,-0.32181647
4676,-0.29499983
4677,-0.21417627
4678,-0.20649537
4679,-0.18435398
4680,-0.1840283
4681,-0.12946061
4682,-0.13105613
4683,-0.159019
4684,-0.11915344
4685,-0.029199787
4686,0.022764199
4687,0.058657996
4688,0.029185737
4689,0.057545604
4690,0.07640926
4691,0.10167759
4692,0.17396602
4693,0.19479359
4694,0.21366527
4695,0.24949699
4696,0.25148255
4697,0.24204967
4698,0.30129119
4699,0.31519622
4700,0.29942738
4701,0.36026555
4702,0.37871864
4703,0.36281402
4704,0.4061936
4705,0.42138802
4706,0.40339707
4707,0.45184163
4708,0.45226997
4709,0.43814653
4710,0.47611158
4711,0.52982753
4712,0.47402428
4713,0.46334592
4714,0.49583032
4715,0.57881087
4716,0.57546171
4717,0.5480032
4718,0.66323708
4719,0.79411457
4720,0.85691622
4721,0.91773249
4722,1.1191012
4723,1.2563839
4724,1.368375
4725,1.4669721
4726,1.5243136
4727,1.5556301
4728,1.4772998
4729,1.4991792
4730,1.322247
4731,1.189848
4732,1.0410602
4733,0.8880061
4734,0.79625852
4735,0.77664463
4736,0.80599559
4737,0.79361085
4738,0.79260365
4739,0.86883846
4740,0.83556101
4741,0.88324466
4742,0.91605192
4743,0.906829
4744,0.9224029
4745,0.91472618
4746,0.95711102
4747,1.0120195
4748,1.076993
4749,1.2008247
4750,1.5447187
4751,1.6901301
4752,1.6016862
4753,1.6080903
4754,1.4758119
4755,1.4250317
4756,1.3926676
4757,1.3749784
4758,1.587308
4759,1.5575253
4760,1.0066612
4761,-0.7129771
4762,-2.1090848
4763,-3.2562893
4764,-4.0037859
4765,-3.3199764
4766,-2.2244663
4767,-1.8241457
4768,-1.6001011
4769,-0.55259014
4770,-0.3739103
4771,-0.44742468
4772,-0.34219461
4773,-0.40622256
4774,-0.41756929
4775,-0.46513571
4776,-0.41796292
4777,-0.40866813
4778,-0.43360333
4779,-0.50414263
4780,-0.44853792
4781,-0.49157178
4782,-0.5398227
4783,-0.51206043
4784,-0.61953756
4785,-0.65659449
4786,-0.68968956
4787,-0.7080083
4788,-0.83093297
4789,-0.8989634
4790,-1.0342897
4791,-1.1046903
4792,-1.198025
4793,-1.2683603
4794,-1.2505573
4795,-1.2656655
4796,-1.3382759
4797,-1.2544975
4798,-1.2814043
4799,-1.35122
4800,-1.2037743
4801,-1.1771272
4802,-0.96441222
4803,-0.78746019
4804,-0.75133941
4805,-0.61495838
4806,-0.42236376
4807,-0.3557697
4808,-0.36892632
4809,-0.18958694
4810,-0.08735497
4811,-0.1067993
4812,-0.024060782
4813,0.086023327
4814,0.096182184
4815,0.05584959
4816,0.11143703
4817,0.098288066
4818,0.12158504
4819,0.25785483
4820,0.2776992
4821,0.23024446
4822,0.32278443
4823,0.33279007
4824,0.3717832
4825,0.39660805
4826,0.48080728
4827,0.44951196
4828,0.59489562
4829,0.59832728
4830,0.6303593
4831,0.78072763
4832,0.71125791
4833,0.7462931
4834,0.72843059
4835,0.75243547
4836,0.83538614
4837,0.81141918
4838,0.75235914
4839,0.67520638
4840,0.70963329
4841,0.62715045
4842,0.62487548
4843,0.57856255
4844,0.48555178
4845,0.59108421
4846,0.44955476
4847,0.42294888
4848,0.48019564
4849,0.48082884
4850,0.54639171
4851,0.46715638
4852,0.50380302
4853,0.45716534
4854,0.40155583
4855,0.30595947
4856,0.38830788
4857,0.35841219
4858,0.37315242
4859,0.33895939
4860,0.51027136
4861,0.89478111
4862,1.0758612
4863,1.2532434
4864,1.2825729
4865,1.4882262
4866,1.8085845
4867,2.0609236
4868,2.1155949
4869,1.9716631
4870,1.683164
4871,1.4041757
4872,1.2983275
4873,1.0039463
4874,0.49367566
4875,-0.080993839
4876,-0.24116658
4877,-0.23680335
4878,-0.20696075
4879,-0.30108013
4880,-0.19850304
4881,-0.15594015
4882,-0.24216883
4883,-0.27084712
4884,-0.23878201
4885,-0.17448092
4886,-0.17427278
4887,-0.19337637
4888,-0.26325947
4889,-0.18303922
4890,-0.051285894
4891,0.088748039
4892,0.71794064
4893,0.77113119
4894,0.9227547
4895,1.6828384
4896,1.8072319
4897,1.6421347
4898,0.7774028
4899,1.1701989
4900,0.30348816
4901,-1.7968885
4902,-3.596764
4903,-4.6180827
4904,-4.1050392
4905,-3.1325418
4906,-2.0192505
4907,-1.6992669
4908,-1.3280904
4909,-0.50738745
4910,-0.23311003
4911,-0.24053034
4912,-0.20217516
4913,-0.22366625
4914,-0.20151393
4915,-0.22774311
4916,-0.19379435
4917,-0.23683051
4918,-0.35325727
4919,-0.32973858
4920,-0.3433155
4921,-0.31320709
4922,-0.41662268
4923,-0.49438313
4924,-0.47179546
4925,-0.52165392
4926,-0.62201846
4927,-0.62049198
4928,-0.66479543
4929,-0.67155879
4930,-0.79031272
4931,-0.83646439
4932,-0.79337559
4933,-0.90850577
4934,-0.89887636
4935,-1.0301765
4936,-0.97946788
4937,-0.99023204
4938,-0.82533645
4939,-0.76894357
4940,-0.7846585
4941,-0.76817829
4942,-0.58584428
4943,-0.50495369
4944,-0.38683873
4945,-0.22703286
4946,-0.1709426
4947,-0.19454888
4948,-0.13051014
4949,-0.091583122
4950,-0.073212875
4951,-0.083431312
4952,-0.02779206
4953,-0.021481551
4954,-0.062410324
4955,0.059280957
4956,0.027505092
4957,-0.02359003
4958,-0.051860983
4959,-0.036831308
4960,0.080716952
4961,0.029480616
4962,0.040966475
4963,0.16436447
4964,0.031342633
4965,0.18373146
4966,0.18402676
4967,0.27952368
4968,0.34521901
4969,0.30478437
4970,0.44162112
4971,0.50705826
4972,0.53495615
4973,0.53556811
4974,0.58960925
4975,0.6013208
4976,0.63313986
4977,0.60217601
4978,0.61877195
4979,0.6002418
4980,0.62314344
4981,0.55908982
4982,0.55388581
4983,0.51728932
4984,0.48322545
4985,0.50214778
4986,0.32438661
4987,0.34439911
4988,0.28434578
4989,0.35189409
4990,0.34036264
4991,0.32246899
4992,0.32694402
4993,0.28283712
4994,0.30063829
4995,0.20407909
4996,0.26974157
4997,0.49914561
4998,0.52550642
4999,0.76900806
5000,1.0248554
5001,1.162039
5002,1.2208872
5003,1.4091727
5004,1.6314473
5005,1.7162755
5006,1.6502655
5007,1.4860197
5008,1.1841308
5009,1.0239299
5010,0.85183116
5011,0.78951446
5012,0.53565185
5013,0.1298832
5014,-0.052806075
5015,-0.13249154
5016,-0.2206066
5017,-0.22989963
5018,-0.20312591
5019,-0.20478751
5020,-0.15267939
5021,-0.26651818
5022,-0.19302679
5023,-0.23096121
5024,-0.14190882
5025,-0.15456918
5026,-0.19960813
5027,-0.12605449
5028,-0.093395315
5029,0.20115343
5030,0.80744803
5031,1.4676772
5032,1.6309924
5033,2.0712313
5034,2.4693983
5035,2.146971
5036,1.2838119
5037,0.6776252
5038,1.0289664
5039,0.35073325
5040,-0.83354058
5041,-1.4633151
5042,-2.2679727
5043,-2.8930469
5044,-3.4220443
5045,-3.9661888
5046,-3.381966
5047,-2.0106879
5048,-1.6993306
5049,-1.4943844
5050,-0.58348293
5051,-0.3743628
5052,-0.50368378
5053,-0.62127772
5054,-0.072646625
5055,0.046094619
5056,-0.52563696
5057,-0.69091485
5058,-0.65256625
5059,-0.46965778
5060,-0.34262635
5061,-0.37346761
5062,-0.45920071
5063,-0.76808763
5064,-0.65399231
5065,-0.62105978
5066,-0.68486953
5067,-0.48202934
5068,-0.46540218
5069,-0.59963525
5070,-0.38478878
5071,-0.25096952
5072,-0.33978651
5073,-0.52715248
5074,-0.81115784
5075,-0.29373431
5076,-0.072122581
5077,-0.33570089
5078,-0.51176596
5079,-0.46750944
5080,-0.029016733
5081,-0.36813391
5082,-0.53274146
5083,-0.48476262
5084,-0.32525817
5085,-0.34540493
5086,-0.38626449
5087,-0.03791348
5088,-0.11792468
5089,-0.31665838
5090,-0.34177542
5091,-0.050585712
5092,0.090646994
5093,-0.021408437
5094,0.045424437
5095,-0.4006518
5096,-0.53662537
5097,-0.22963693
5098,-0.26915502
5099,-0.17794996
5100,-0.11472405
5101,-0.14679337
5102,-0.18661282
5103,-0.19648172
5104,-0.12574968
5105,-0.03582161
5106,0.10879457
5107,0.013489632
5108,-0.0065900179
5109,0.066912545
5110,0.20112873
5111,0.33890247
5112,0.33957814
5113,0.22046921
5114,0.26164641
5115,0.31003811
5116,0.45576245
5117,0.36034813
5118,0.52577722
5119,0.53704402
5120,0.51552617
5121,0.44671591
5122,0.46038645
5123,0.36591022
5124,0.3596137
5125,0.49323751
5126,0.46610206
5127,0.44852941
5128,0.46070048
5129,0.47452859
5130,0.39577957
5131,0.4511212
5132,0.45585988
5133,0.39293569
5134,0.35047972
5135,0.45890525
5136,0.40050876
5137,0.46103572
5138,0.61840674
5139,0.84584295
5140,0.81393201
5141,1.1035641
5142,1.4204946
5143,1.5633771
5144,1.9818238
5145,2.1580291
5146,2.2622342
5147,2.2697721
5148,2.1454828
5149,1.7636766
5150,1.6027409
5151,1.3190525
5152,1.0151368
5153,0.64955902
5154,0.3575324
5155,0.21170762
5156,0.12964191
5157,0.15773882
5158,0.21416123
5159,0.16283604
5160,0.31052072
5161,0.5073217
5162,0.51418476
5163,0.5550968
5164,0.53032927
5165,0.58729527
5166,0.48679646
5167,0.46220497
5168,0.53688887
5169,0.61901485
5170,0.9759085
5171,1.8066892
5172,2.0838682
5173,1.4036605
5174,0.50692178
5175,-0.62905308
5176,-1.3482969
5177,-1.5711592
5178,-1.3197323
5179,-0.40873099
5180,-0.869182
5181,-2.2065865
5182,-2.9895709
5183,-3.5100354
5184,-3.2893642
5185,-3.0073148
5186,-2.2406109
5187,-1.7115846
5188,-1.80555
5189,-1.4183316
5190,-0.90173395
5191,-0.76825269
5192,-0.87575673
5193,-0.94860332
5194,-0.77489531
5195,-0.82088242
5196,-0.96868294
5197,-0.83526283
5198,-0.86383518
5199,-0.87544557
5200,-0.79902868
5201,-0.80644803
5202,-0.81050205
5203,-0.83383589
5204,-0.75704835
5205,-0.73629747
5206,-0.80626221
5207,-0.88313281
5208,-0.91346623
5209,-0.77745338
5210,-0.85249514
5211,-0.94051653
5212,-0.93280471
5213,-0.88050631
5214,-0.77325364
5215,-0.95864382
5216,-0.91953766
5217,-0.79980003
5218,-0.8343904
5219,-0.85471294
5220,-0.85583099
5221,-0.67216428
5222,-0.66109227
5223,-0.50697806
5224,-0.35539539
5225,-0.42177061
5226,-0.53625163
5227,-0.32596317
5228,-0.31717007
5229,-0.37730566
5230,-0.32989117
5231,-0.1764936
5232,-0.1957094
5233,-0.1604057
5234,-0.14924584
5235,-0.12409144
5236,-0.028446905
5237,0.026180075
5238,-0.15007249
5239,-0.15393779
5240,-0.14604047
5241,-0.021657463
5242,-0.014306005
5243,0.039257439
5244,0.20493539
5245,0.11602464
5246,0.084304107
5247,0.11123894
5248,0.21272998
5249,0.26163798
5250,0.13536919
5251,0.30074526
5252,0.45143944
5253,0.40357213
5254,0.48383784
5255,0.51391024
5256,0.56863865
5257,0.53702278
5258,0.41885194
5259,0.37096142
5260,0.37716016
5261,0.47553953
5262,0.49642491
5263,0.4727351
5264,0.44678285
5265,0.46839683
5266,0.50782288
5267,0.53981375
5268,0.45266186
5269,0.53897268
5270,0.39855023
5271,0.46245577
5272,0.51686294
5273,0.46859871
5274,0.55577636
5275,0.62973144
5276,0.77314843
5277,0.88806691
5278,0.80317658
5279,0.76936946
5280,1.0906305
5281,1.1969699
5282,1.3296435
5283,1.5050152
5284,1.5628844
5285,1.5760815
5286,1.4032697
5287,1.2858207
5288,1.1047245
5289,1.121968
5290,0.95280533
5291,0.78320928
5292,0.609461
5293,0.34251807
5294,0.40503538
5295,0.45644674
5296,0.50191352
5297,0.52328074
5298,0.43453203
5299,0.43572867
5300,0.58881715
5301,0.55893894
5302,0.36612367
5303,0.41786921
5304,0.62788765
5305,0.68541861
5306,0.59936648
5307,0.61441463
5308,0.7286199
5309,0.87216645
5310,1.1669045
5311,1.2969144
5312,1.2885578
5313,1.5334311
5314,1.5094861
5315,1.3902125
5316,1.3655023
5317,1.3225038
5318,1.8521256
5319,1.5419344
5320,0.1940386
5321,-2.6269766
5322,-4.0946853
5323,-4.530522
5324,-4.1227825
5325,-3.0820611
5326,-1.9064297
5327,-1.6267002
5328,-0.98881683
5329,-0.2625284
5330,-0.35485818
5331,-0.24360805
5332,-0.21174603
5333,-0.26478906
5334,-0.23264451
5335,-0.24389732
5336,-0.30767997
5337,-0.28962471
5338,-0.26859114
5339,-0.27667459
5340,-0.37508493
5341,-0.35752287
5342,-0.486995
5343,-0.55767708
5344,-0.4431726
5345,-0.54293508
5346,-0.59243604
5347,-0.6002907
5348,-0.62743828
5349,-0.74285958
5350,-0.66799109
5351,-0.85394338
5352,-0.81640358
5353,-0.92950293
5354,-0.92976653
5355,-0.93841109
5356,-0.93204217
5357,-0.94117377
5358,-0.94518245
5359,-0.87573421
5360,-0.7454381
5361,-0.72659819
5362,-0.6679336
5363,-0.39140323
5364,-0.35894004
5365,-0.36369057
5366,-0.24877757
5367,-0.24437095
5368,-0.17974104
5369,-0.13775457
5370,0.024926969
5371,-0.019682223
5372,0.065831627
5373,0.13226511
5374,0.1092153
5375,0.12517479
5376,0.27656715
5377,0.21831138
5378,0.21519164
5379,0.27155052
5380,0.32662434
5381,0.25356447
5382,0.28211582
5383,0.49307158
5384,0.38812612
5385,0.42776252
5386,0.5217755
5387,0.5896693
5388,0.61685294
5389,0.6829981
5390,0.70978146
5391,0.74074667
5392,0.64651648
5393,0.69844508
5394,0.63012831
5395,0.76637419
5396,0.7284455
5397,0.66134137
5398,0.70455108
5399,0.52651392
5400,0.63808952
5401,0.64315976
5402,0.49377402
5403,0.55167319
5404,0.46524968
5405,0.55870597
5406,0.44034169
5407,0.38693191
5408,0.38340207
5409,0.41095372
5410,0.38577956
5411,0.37742051
5412,0.40261455
5413,0.3264872
5414,0.3616945
5415,0.36688041
5416,0.37402358
5417,0.44819118
5418,0.59137108
5419,0.88779852
5420,1.2309699
5421,1.3120343
5422,1.4284373
5423,1.5764141
5424,1.7901007
5425,1.6576839
5426,1.6500184
5427,1.6249761
5428,1.3313129
5429,1.2139498
5430,0.961732
5431,0.67800119
5432,0.31326698
5433,-0.063885789
5434,-0.19038678
5435,-0.27232209
5436,-0.23693128
5437,-0.22902931
5438,-0.24000958
5439,-0.33611395
5440,-0.2104699
5441,-0.18256512
5442,-0.11599984
5443,-0.17489923
5444,-0.17892008
5445,-0.10488017
5446,-0.090408797
5447,-0.12083461
5448,-0.051125987
5449,0.14008398
5450,0.84172399
5451,1.270668
5452,1.1135843
5453,1.1221841
5454,0.88618453
5455,0.72436759
5456,0.70664178
5457,0.86761242
5458,1.2951468
5459,-1.2848233
5460,1.381994
5461,0.36621607
5462,-2.4019983
5463,-4.2293972
5464,-4.9372699
5465,-5.0561839
5466,-3.8526331
5467,-2.1658699
5468,-1.9756248
5469,-1.1081356
5470,-0.11463923
5471,-0.19791556
5472,-0.24602237
5473,-0.10414129
5474,-0.046410796
5475,-0.067892614
5476,0.23488257
5477,0.32179348
5478,0.27563529
5479,0.21115321
5480,0.25558825
5481,0.2259627
5482,0.3342047
5483,0.26990682
5484,0.34460541
5485,0.28124644
5486,0.55479254
5487,0.4999322
5488,0.32474916
5489,0.19225441
5490,0.2747678
5491,0.16306141
5492,0.076353115
5493,0.12241184
5494,-0.141462
5495,-0.21037408
5496,-0.014104558
5497,0.061627422
5498,-0.11164908
5499,-0.072694063
5500,-0.055701079
5501,0.066338636
5502,0.065868034
5503,0.057605889
5504,0.23233759
5505,0.26457152
5506,0.46664347
5507,0.52532594
5508,0.63407284
5509,0.4331724
5510,0.39840851
5511,0.5008044
5512,0.55525392
5513,0.69831644
5514,0.57229014
5515,0.52401516
5516,0.64888858
5517,0.5974668
5518,0.56286817
5519,0.5846362
5520,0.54415541
5521,0.49085373
5522,0.57391471
5523,0.5151486
5524,0.48788316
5525,0.59762703
5526,0.6404152
5527,0.75357241
5528,0.65541997
5529,0.65509987
5530,0.74535054
5531,0.74074953
5532,0.6582024
5533,0.7374126
5534,0.59984443
5535,0.65270407
5536,0.73390524
5537,0.61080117
5538,0.57532655
5539,0.65332316
5540,0.6480747
5541,0.45093375
5542,0.48712753
5543,0.37887817
5544,0.41127997
5545,0.40842992
5546,0.22206699
5547,0.1649612
5548,0.13895889
5549,0.22080683
5550,0.13376541
5551,0.1309494
5552,0.061104875
5553,0.027411738
5554,0.0013073412
5555,0.075516316
5556,-0.014458395
5557,0.025507035
5558,0.042833967
5559,0.13440725
5560,0.041720512
5561,-0.052771846
5562,-0.053965983
5563,0.11094172
5564,0.26175074
5565,0.39416452
5566,0.52321069
5567,0.84624645
5568,1.014927
5569,0.88103388
5570,0.62336098
5571,0.34329358
5572,0.12654862
5573,0.031103658
5574,0.12691427
5575,-0.023384617
5576,-0.37095866
5577,-0.71593091
5578,-0.87829665
5579,-0.88372397
5580,-1.0540557
5581,-1.0780056
5582,-1.0702878
5583,-1.0086882
5584,-1.1277357
5585,-1.0584954
5586,-0.89273247
5587,-0.83903891
5588,-0.90436231
5589,-1.308129
5590,-1.1405188
5591,-0.54974974
5592,0.28551732
5593,0.60328977
5594,0.9435067
5595,1.1229611
5596,1.2020018
5597,0.62389127
5598,-0.15810707
5599,0.23907783
5600,0.8601815
5601,-0.1418624
5602,-1.9673779
5603,-2.9888945
5604,-3.8054927
5605,-3.5349361
5606,-2.5727398
5607,-1.9410837
5608,-1.5679289
5609,-0.6666069
5610,-0.39057052
5611,-0.44048619
5612,-0.34772724
5613,-0.33634353
5614,-0.35092696
5615,-0.41944037
5616,-0.42538555
5617,-0.3984287
5618,-0.44930303
5619,-0.49409829
5620,-0.46315078
5621,-0.53909561
5622,-0.66490158
5623,-0.66983643
5624,-0.59577177
5625,-0.70255449
5626,-0.84050179
5627,-0.85796611
5628,-0.94829584
5629,-0.87069314
5630,-1.0515735
5631,-1.1141012
5632,-1.0693649
5633,-1.2264251
5634,-1.1925338
5635,-1.2103399
5636,-1.3302845
5637,-1.2821574
5638,-1.2894278
5639,-1.1037867
5640,-1.0540334
5641,-1.0017427
5642,-1.0318155
5643,-0.86151372
5644,-0.70442083
5645,-0.67167205
5646,-0.52076259
5647,-0.4786686
5648,-0.4298769
5649,-0.27926442
5650,-0.26086462
5651,-0.33511736
5652,-0.1686186
5653,-0.20816881
5654,-0.19304768
5655,-0.18248668
5656,-0.13485653
5657,-0.067825746
5658,-0.028167989
5659,0.041396328
5660,0.046458175
5661,0.094236883
5662,0.090328862
5663,0.22296357
5664,0.37001506
5665,0.43797713
5666,0.3932308
5667,0.34172463
5668,0.45222241
5669,0.50342936
5670,0.52959964
5671,0.57640402
5672,0.63839914
5673,0.65897446
5674,0.51787544
5675,0.55623293
5676,0.51095482
5677,0.59077971
5678,0.55924163
5679,0.54986821
5680,0.4812327
5681,0.47062567
5682,0.44019704
5683,0.3897952
5684,0.36795257
5685,0.37277516
5686,0.3310922
5687,0.38640313
5688,0.34362028
5689,0.30251866
5690,0.42750609
5691,0.33790794
5692,0.39377182
5693,0.31425529
5694,0.4630185
5695,0.35810994
5696,0.30632635
5697,0.42741326
5698,0.36588975
5699,0.45020852
5700,0.47055251
5701,0.55274383
5702,0.92625158
5703,1.1423205
5704,1.2735146
5705,1.4464056
5706,1.5736994
5707,1.9466014
5708,2.2666614
5709,2.1760928
5710,2.0371013
5711,1.8584269
5712,1.7444298
5713,1.5470201
5714,1.2637535
5715,0.74392715
5716,0.19274446
5717,-0.0051230624
5718,-0.0045447824
5719,-0.0044780955
5720,-0.13646034
5721,0.041174638
5722,-0.011509561
5723,0.056577011
5724,0.046860696
5725,0.04455934
5726,0.08130467
5727,0.015736356
5728,0.11642984
5729,0.12444127
5730,0.1741764
5731,0.38120375
5732,1.014294
5733,1.5735464
5734,1.26404
5735,1.4922338
5736,1.6145787
5737,1.3942715
5738,0.59271243
5739,0.57393333
5740,-0.50162131
5741,-1.0885841
5742,-1.9397493
5743,-3.8884577
5744,-3.9511298
5745,-3.7056505
5746,-2.8737203
5747,-1.9517084
5748,-1.150802
5749,-0.88886891
5750,-0.4511115
5751,-0.12966496
5752,-0.062786364
5753,-0.15013052
5754,-0.30613358
5755,-0.60497228
5756,-0.78008477
5757,-0.68535122
5758,-0.64817681
5759,-0.64254805
5760,-0.56671865
5761,-0.4993034
5762,-0.45560725
5763,-0.49735603
5764,-0.4784027
5765,-0.43096976
5766,-0.34893201
5767,-0.38120151
5768,-0.34435793
5769,-0.28939968
5770,-0.35077581
5771,-0.34159018
5772,-0.35891507
5773,-0.35520397
5774,-0.425725
5775,-0.39905546
5776,-0.45446879
5777,-0.43383121
5778,-0.49751684
5779,-0.59484332
5780,-0.60672001
5781,-0.61033218
5782,-0.59790306
5783,-0.591794
5784,-0.5578858
5785,-0.52713078
5786,-0.54754834
5787,-0.47495141
5788,-0.41804966
5789,-0.37977675
5790,-0.33453388
5791,-0.30220087
5792,-0.29337014
5793,-0.33207313
5794,-0.27696819
5795,-0.26287147
5796,-0.25468554
5797,-0.278847
5798,-0.24986102
5799,-0.32466922
5800,-0.30076046
5801,-0.37536839
5802,-0.28638718
5803,-0.30998513
5804,-0.32541378
5805,-0.29184997
5806,-0.26465758
5807,-0.2709228
5808,-0.23601605
5809,-0.22861508
5810,-0.2254585
5811,-0.20612425
5812,-0.22388702
5813,-0.21851504
5814,-0.14480835
5815,-0.11981557
5816,-0.14737146
5817,-0.03794437
5818,-0.085062979
5819,-0.046366626
5820,-0.033447392
5821,-0.0048851905
5822,0.014000756
5823,0.026848102
5824,0.053281903
5825,0.062308393
5826,0.072059595
5827,0.10268872
5828,0.1307667
5829,0.14254294
5830,0.21226921
5831,0.23912392
5832,0.2407724
5833,0.25707283
5834,0.30228775
5835,0.29489505
5836,0.23629385
5837,0.31484162
5838,0.39681995
5839,0.40840375
5840,0.4633555
5841,0.45886471
5842,0.52610784
5843,0.54410442
5844,0.53603264
5845,0.5562474
5846,0.6370206
5847,0.67599322
5848,0.76511945
5849,0.9740357
5850,1.1480812
5851,1.3256004
5852,1.5865326
5853,1.7036074
5854,1.7635084
5855,1.7330211
5856,1.5713397
5857,1.4124095
5858,1.2507314
5859,0.99159144
5860,0.64598334
5861,0.5496972
5862,0.54583024
5863,0.62844716
5864,0.65994471
5865,0.64974171
5866,0.63196901
5867,0.67307441
5868,0.65684723
5869,0.70476365
5870,0.7768457
5871,0.82811562
5872,1.1967957
5873,1.4450747
5874,1.505033
5875,1.7656167
5876,2.0334675
5877,2.0392521
5878,2.5894742
5879,2.854707
5880,-0.53334196
5881,-1.8556681
5882,-2.2140382
5883,-3.1334115
5884,-3.4171372
5885,-3.0604469
5886,-2.2562981
5887,-1.7656979
5888,-1.6222889
5889,-1.1547278
5890,-0.86777128
5891,-0.90647173
5892,-0.87130542
5893,-0.87435826
5894,-0.88158744
5895,-0.9031436
5896,-0.86607165
5897,-0.86865471
5898,-0.84634872
5899,-0.84449092
5900,-0.85347664
5901,-0.86195995
5902,-0.80943786
5903,-0.84169649
5904,-0.87337192
5905,-0.88915814
5906,-0.90897358
5907,-0.86972108
5908,-0.88412267
5909,-0.90523014
5910,-0.93980093
5911,-0.95116533
5912,-0.96750259
5913,-0.99250209
5914,-1.00055
5915,-0.95494752
5916,-0.94863479
5917,-0.90411414
5918,-0.89658748
5919,-0.81267242
5920,-0.78924399
5921,-0.71010155
5922,-0.66955258
5923,-0.61376458
5924,-0.59935909
5925,-0.51718842
5926,-0.45020178
5927,-0.39521824
5928,-0.3804468
5929,-0.39336749
5930,-0.35022284
5931,-0.3496819
5932,-0.30588408
5933,-0.28722073
5934,-0.25920436
5935,-0.28317265
5936,-0.26636688
5937,-0.26271382
5938,-0.16842277
5939,-0.19469278
5940,-0.12977245
5941,-0.12958657
5942,-0.10498221
5943,-0.064817854
5944,-0.053427639
5945,-0.013164421
5946,0.050629092
5947,0.077997132
5948,0.12776021
5949,0.16521717
5950,0.19037757
5951,0.22530202
5952,0.24942965
5953,0.31732883
5954,0.37778205
5955,0.38997654
5956,0.39844172
5957,0.41033347
5958,0.41015456
5959,0.43594136
5960,0.38914246
5961,0.42578306
5962,0.40887891
5963,0.43909803
5964,0.41708778
5965,0.4451613
5966,0.384284
5967,0.45751283
5968,0.4544231
5969,0.45197146
5970,0.45223411
5971,0.47006201
5972,0.44817616
5973,0.49418289
5974,0.50964656
5975,0.5176745
5976,0.67688972
5977,0.78403996
5978,0.87424459
5979,0.9456575
5980,1.0248959
5981,1.0867153
5982,1.2527737
5983,1.3675454
5984,1.3227666
5985,1.326218
5986,1.2184425
5987,1.1167806
5988,1.0481063
5989,0.93974315
5990,0.87787588
5991,0.81094052
5992,0.64422778
5993,0.60055214
5994,0.60878534
5995,0.59690879
5996,0.62106176
5997,0.63352473
5998,0.68134089
5999,0.64581241
6000,0.67874564
6001,0.67005885
6002,0.74092042
6003,0.78719304
6004,0.73983483
6005,0.79384607
6006,0.82002298
6007,0.91486825
6008,1.1019108
6009,1.4095197
6010,1.7047704
6011,1.7577696
6012,2.0140076
6013,2.0983021
6014,1.9152334
6015,1.5826766
6016,1.3321916
6017,1.2746631
6018,1.1994292
6019,0.31686028
6020,0.85178389
6021,-1.4862776
6022,-3.9043667
6023,-4.941625
6024,-4.282336
6025,-3.0970639
6026,-1.9312018
6027,-1.5690898
6028,-1.0521301
6029,-0.10655202
6030,-0.066951085
6031,-0.11277209
6032,-0.058698588
6033,-0.046265399
6034,-0.13378857
6035,-0.17651719
6036,-0.11162334
6037,-0.13643747
6038,-0.11581017
6039,-0.21304228
6040,-0.20557665
6041,-0.29667035
6042,-0.30835711
6043,-0.45523841
6044,-0.50014308
6045,-0.45278289
6046,-0.57312768
6047,-0.70275134
6048,-0.64572119
6049,-0.69647047
6050,-0.78108314
6051,-0.89182715
6052,-0.92071644
6053,-0.91456165
6054,-1.0263685
6055,-1.0026588
6056,-0.97886671
6057,-0.90476753
6058,-0.69501227
6059,-0.68493161
6060,-0.51978124
6061,-0.45650388
6062,-0.31031004
6063,-0.26626752
6064,-0.10157425
6065,0.031052349
6066,0.0035526915
6067,0.040426343
6068,0.062550591
6069,0.069680647
6070,0.22040444
6071,0.11792035
6072,0.1301579
6073,0.24675551
6074,0.20826631
6075,0.25281167
6076,0.29164016
6077,0.44066717
6078,0.26958432
6079,0.4433935
6080,0.41274214
6081,0.36475173
6082,0.46262625
6083,0.35237183
6084,0.55308955
6085,0.59358927
6086,0.61458859
6087,0.57977518
6088,0.66915544
6089,0.71567842
6090,0.70625094
6091,0.77333099
6092,0.72941978
6093,0.77701225
6094,0.70129533
6095,0.63203392
6096,0.60940389
6097,0.57457027
6098,0.64886321
6099,0.54822911
6100,0.43883948
6101,0.47639184
6102,0.43590141
6103,0.45862609
6104,0.32201849
6105,0.29927435
6106,0.25183042
6107,0.31820087
6108,0.24817357
6109,0.23915038
6110,0.3458215
6111,0.17787965
6112,0.16033654
6113,0.16501717
6114,0.19062999
6115,0.26687555
6116,0.32833787
6117,0.47325043
6118,0.65287986
6119,0.93563338
6120,1.0859162
6121,1.2350642
6122,1.4411399
6123,1.6680814
6124,1.7529161
6125,1.7363414
6126,1.5661017
6127,1.2613804
6128,0.97630028
6129,0.68142713
6130,0.51849585
6131,0.1648851
6132,-0.17602166
6133,-0.49025698
6134,-0.54465695
6135,-0.53981323
6136,-0.58155781
6137,-0.66257803
6138,-0.6228561
6139,-0.58954734
6140,-0.73232138
6141,-0.60769471
6142,-0.67342333
6143,-0.5921011
6144,-0.5993159
6145,-0.53252789
6146,-0.53016308
6147,-0.41404642
6148,-0.22510324
6149,0.32666054
6150,1.0290628
6151,0.85763066
6152,0.86628606
6153,1.1244967
6154,1.1699139
6155,0.96957654
6156,1.1287146
6157,1.7244534
6158,1.7819046
6159,-0.0026400714
6160,0.40506333
6161,-1.4921667
6162,-3.0436824
6163,-4.5457704
6164,-4.3606358
6165,-3.4471162
6166,-2.3130153
6167,-1.725849
6168,-1.5285543
6169,-0.63867048
6170,-0.37682493
6171,-0.4812797
6172,-0.46501338
6173,-0.31573149
6174,-0.39031783
6175,-0.41702923
6176,-0.42017034
6177,-0.36281333
6178,-0.28319042
6179,-0.37695776
6180,-0.42788008
6181,-0.39653881
6182,-0.43802676
6183,-0.5236535
6184,-0.43437812
6185,-0.53058279
6186,-0.74204998
6187,-0.65196743
6188,-0.61446132
6189,-0.55330677
6190,-0.76789682
6191,-0.89266173
6192,-0.80207672
6193,-0.88284909
6194,-0.86572266
6195,-0.92887897
6196,-0.93332585
6197,-0.88958386
6198,-0.9051775
6199,-0.84011356
6200,-0.80170025
6201,-0.6340337
6202,-0.40185474
6203,-0.31075993
6204,-0.26544362
6205,-0.32603611
6206,-0.19704289
6207,-0.12122313
6208,-0.088212565
6209,0.13234359
6210,0.080903261
6211,0.030939159
6212,-0.017912422
6213,0.16252747
6214,0.14374555
6215,0.078192161
6216,0.28211908
6217,0.18986663
6218,0.20951262
6219,0.32222801
6220,0.19576249
6221,0.31361221
6222,0.36743274
6223,0.60872191
6224,0.32883373
6225,0.38023075
6226,0.4182619
6227,0.44467001
6228,0.54531354
6229,0.56324579
6230,0.78804544
6231,0.76666078
6232,0.63091957
6233,0.57737293
6234,0.53479019
6235,0.54096915
6236,0.59171874
6237,0.63193366
6238,0.59225801
6239,0.44272851
6240,0.44440055
6241,0.42399869
6242,0.4034409
6243,0.40735497
6244,0.52197825
6245,0.35379044
6246,0.43887195
6247,0.31929082
6248,0.47420731
6249,0.42456179
6250,0.33872973
6251,0.30298639
6252,0.37843243
6253,0.34534213
6254,0.33041978
6255,0.28995686
6256,0.48116331
6257,0.47970092
6258,0.73738422
6259,0.99083551
6260,1.0648768
6261,1.158442
6262,1.4502186
6263,1.7339622
6264,2.0100259
6265,1.936991
6266,1.8805792
6267,1.8311168
6268,1.5793829
6269,1.2725002
6270,1.1854633
6271,0.81886409
6272,0.30871899
6273,-0.087379068
6274,-0.26093959
6275,-0.375737
6276,-0.37160575
6277,-0.25218158
6278,-0.3260885
6279,-0.40222132
6280,-0.35931581
6281,-0.25798971
6282,-0.28560711
6283,-0.5089964
6284,-0.30032452
6285,-0.35951965
6286,-0.33406031
6287,-0.23290988
6288,-0.13429671
6289,0.13987637
6290,0.79277919
6291,1.4404714
6292,1.3082322
6293,1.2924506
6294,1.2855227
6295,0.85574492
6296,0.46895266
6297,0.20058962
6298,0.97615222
6299,0.83962996
6300,-2.3427143
6301,-3.6641543
6302,-3.6197798
6303,-3.6053822
6304,-3.5874414
6305,-3.4780741
6306,-2.8876227
6307,-1.9336296
6308,-1.4436612
6309,-1.3760427
6310,-0.93932953
6311,-0.64469169
6312,-0.52994914
6313,-0.55175233
6314,-0.52225153
6315,-0.49312276
6316,-0.58891072
6317,-0.46744944
6318,-0.40097504
6319,-0.43154625
6320,-0.47019792
6321,-0.44469417
6322,-0.43706352
6323,-0.46567559
6324,-0.49131682
6325,-0.53255503
6326,-0.43212351
6327,-0.43301835
6328,-0.35706302
6329,-0.22933707
6330,-0.23880919
6331,-0.30291263
6332,-0.34617799
6333,-0.30810945
6334,-0.14781316
6335,-0.12615836
6336,-0.1709897
6337,-0.14970707
6338,-0.15079496
6339,-0.068106792
6340,0.02483863
6341,0.20394965
6342,0.14813358
6343,0.12481306
6344,0.26787581
6345,0.44064442
6346,0.50966303
6347,0.61148242
6348,0.64740799
6349,0.61643679
6350,0.62168058
6351,0.65723424
6352,0.58307162
6353,0.46145352
6354,0.42835492
6355,0.46810517
6356,0.29231921
6357,0.3069169
6358,0.39354646
6359,0.40143571
6360,0.44895698
6361,0.41275353
6362,0.3222342
6363,0.44566001
6364,0.41657068
6365,0.37847671
6366,0.34974744
6367,0.35908874
6368,0.31404723
6369,0.26715792
6370,0.35282133
6371,0.3415387
6372,0.29689821
6373,0.27028489
6374,0.25248543
6375,0.36678229
6376,0.42709375
6377,0.4505542
6378,0.38970991
6379,0.32743946
6380,0.31133556
6381,0.30444629
6382,0.10312793
6383,-0.050452612
6384,0.27363097
6385,0.23899661
6386,0.24898403
6387,0.2131832
6388,0.40160777
6389,0.66426925
6390,0.72049625
6391,0.79541362
6392,0.83257584
6393,0.97736401
6394,1.1330293
6395,1.3352612
6396,1.4912076
6397,1.514876
6398,1.7366149
6399,1.9048774
6400,1.9426724
6401,1.9685609
6402,1.6713436
6403,1.439871
6404,1.327964
6405,1.1637085
6406,1.11418
6407,0.9391226
6408,0.70883585
6409,0.40956164
6410,0.27778204
6411,0.13470889
6412,0.06574478
6413,-0.01388986
6414,-0.0038446788
6415,-0.045558163
6416,-0.088683395
6417,-0.0582888
6418,-0.071772526
6419,-0.17695796
6420,-0.13471224
6421,-0.13123371
6422,-0.1167787
6423,-0.13651661
6424,-0.088805486
6425,-0.14863134
6426,-0.037177676
6427,-0.027413869
6428,0.11710034
6429,0.39171818
6430,0.42937099
6431,0.37995623
6432,-0.0088135514
6433,-0.43825575
6434,-0.75085898
6435,-1.0469212
6436,-0.97364076
6437,-0.43415687
6438,0.23101445
6439,-0.51970985
6440,-0.83081234
6441,-3.0505616
6442,-4.0476053
6443,-4.2326604
6444,-3.6696191
6445,-2.8282341
6446,-1.9958907
6447,-1.6922747
6448,-1.262289
6449,-0.63972882
6450,-0.50583094
6451,-0.50004825
6452,-0.50756872
6453,-0.51852618
6454,-0.50769348
6455,-0.42579634
6456,-0.42958775
6457,-0.49467186
6458,-0.55570326
6459,-0.54819549
6460,-0.57820137
6461,-0.5503357
6462,-0.58073203
6463,-0.62585347
6464,-0.58532849
6465,-0.57736426
6466,-0.6574849
6467,-0.69549282
6468,-0.73701574
6469,-0.83201986
6470,-0.84116333
6471,-0.92653536
6472,-0.91119223
6473,-0.86636737
6474,-0.87610326
6475,-0.81361302
6476,-0.88451312
6477,-0.71168552
6478,-0.69429116
6479,-0.66369268
6480,-0.53269641
6481,-0.49555338
6482,-0.37895411
6483,-0.35423944
6484,-0.24875353
6485,-0.17715503
6486,-0.17074795
6487,-0.10615154
6488,-0.0068255843
6489,-0.013238759
6490,-0.0068044085
6491,0.070326201
6492,0.076632643
6493,0.079222447
6494,0.15450095
6495,0.11031387
6496,0.14786275
6497,0.1528749
6498,0.2316463
6499,0.24642791
6500,0.21103905
6501,0.19811614
6502,0.26393068
6503,0.32656335
6504,0.38568787
6505,0.35741931
6506,0.39583251
6507,0.50220077
6508,0.49812759
6509,0.60629007
6510,0.5568353
6511,0.64630388
6512,0.65649245
6513,0.72474404
6514,0.66593538
6515,0.65119356
6516,0.70904774
6517,0.67749281
6518,0.58334962
6519,0.578682
6520,0.65214615
6521,0.51516293
6522,0.56163236
6523,0.53918208
6524,0.42286043
6525,0.54625153
6526,0.49908084
6527,0.43492666
6528,0.45323913
6529,0.41782334
6530,0.48327631
6531,0.41954335
6532,0.49233913
6533,0.52598864
6534,0.44095907
6535,0.47853298
6536,0.53838548
6537,0.7507574
6538,0.87217745
6539,1.0798172
6540,1.2204757
6541,1.2901047
6542,1.5441345
6543,1.715433
6544,1.8769401
6545,1.7000842
6546,1.6465373
6547,1.4882518
6548,1.2894347
6549,1.1400184
6550,0.86218533
6551,0.59188013
6552,0.17248748
6553,-0.1290809
6554,-0.1431075
6555,-0.25931619
6556,-0.29160486
6557,-0.22538799
6558,-0.21599595
6559,-0.23559382
6560,-0.2237094
6561,-0.25793116
6562,-0.16149154
6563,-0.2827131
6564,-0.31845454
6565,-0.2399266
6566,-0.20618602
6567,-0.16181058
6568,-0.032421739
6569,0.19197353
6570,0.85352978
6571,0.94823686
6572,0.90354015
6573,1.2390001
6574,1.1994468
6575,0.95060251
6576,0.93959592
6577,1.3064315
6578,1.8981593
6579,0.17047779
6580,0.88416093
6581,-1.904508
6582,-3.709385
6583,-4.6219562
6584,-4.7367288
6585,-3.8255993
6586,-2.3117917
6587,-1.6205118
6588,-1.3062441
6589,-0.09854237
6590,0.10636985
6591,0.19837468
6592,0.19865489
6593,0.13761848
6594,0.02009593
6595,0.036199111
6596,0.15154455
6597,0.042447165
6598,0.026993875
6599,0.062738329
6600,-0.030109565
6601,-0.031729104
6602,0.00073088375
6603,-0.1368922
6604,-0.28035626
6605,-0.34587504
6606,-0.31883937
6607,-0.46300015
6608,-0.5304902
6609,-0.62918772
6610,-0.6340071
6611,-0.70038
6612,-0.7935923
6613,-0.8512581
6614,-0.83229728
6615,-0.91665745
6616,-0.926801
6617,-0.91895496
6618,-0.84360072
6619,-0.81735833
6620,-0.70514798
6621,-0.8204301
6622,-0.53607779
6623,-0.469365
6624,-0.2431687
6625,-0.094261729
6626,-0.04063026
6627,0.064897301
6628,0.14070183
6629,0.087725181
6630,0.09918348
6631,0.26041782
6632,0.21869644
6633,0.29343191
6634,0.23894728
6635,0.31089879
6636,0.35164681
6637,0.4285843
6638,0.40265281
6639,0.3983675
6640,0.49032617
6641,0.42522077
6642,0.49115569
6643,0.50675809
6644,0.47181139
6645,0.51411297
6646,0.60831431
6647,0.63013834
6648,0.80780105
6649,0.66355579
6650,0.72511025
6651,0.90306107
6652,0.82437506
6653,0.96849691
6654,0.9121597
6655,0.90998124
6656,0.92187043
6657,0.87287831
6658,0.91203725
6659,0.88322154
6660,0.69053295
6661,0.81471247
6662,0.70710302
6663,0.72224021
6664,0.72226475
6665,0.62471818
6666,0.48371863
6667,0.59915686
6668,0.49037199
6669,0.48153663
6670,0.45700768
6671,0.41803729
6672,0.36694212
6673,0.27696812
6674,0.29741855
6675,0.28105991
6676,0.18315134
6677,0.26717769
6678,0.17114741
6679,0.38320806
6680,0.48144159
6681,0.28595044
6682,0.29501784
6683,0.5300597
6684,0.64665966
6685,0.77336382
6686,1.1200971
6687,1.4921609
6688,1.3169518
6689,1.3595556
6690,1.155564
6691,0.77909476
6692,0.50826241
6693,0.69163764
6694,0.5153092
6695,0.026264411
6696,-0.39166083
6697,-0.60806945
6698,-0.65161966
6699,-0.29788394
6700,-0.46618581
6701,-0.51178022
6702,-0.62699876
6703,-0.61599706
6704,-0.57557994
6705,-0.50926293
6706,-0.64225486
6707,-0.60314325
6708,-0.43182793
6709,-0.34472771
6710,0.30671784
6711,1.5482666
6712,1.6712941
6713,1.2077835
6714,1.2130445
6715,0.37725835
6716,-0.21555874
6717,-0.93964225
6718,-0.20846734
6719,-0.65829992
6720,1.1048512
6721,-0.61504694
6722,-2.4357678
6723,-3.4192147
6724,-4.3342606
6725,-4.0145647
6726,-2.6293943
6727,-1.7277605
6728,-1.5672598
6729,-0.54344387
6730,-0.032608379
6731,0.052262962
6732,0.047854735
6733,0.078843609
6734,0.056478745
6735,0.065036032
6736,-0.13298503
6737,-0.10655903
6738,-0.16626916
6739,-0.1679443
6740,-0.17780281
6741,-0.33855385
6742,-0.39948177
6743,-0.46678688
6744,-0.40730265
6745,-0.52599942
6746,-0.45350912
6747,-0.59070185
6748,-0.69272233
6749,-0.73933223
6750,-0.81219324
6751,-0.89854487
6752,-0.93068782
6753,-0.85476892
6754,-1.0356973
6755,-0.97818776
6756,-0.99069785
6757,-1.0832035
6758,-1.0286351
6759,-1.0438466
6760,-0.98387526
6761,-0.92663997
6762,-0.84601736
6763,-0.65032235
6764,-0.65880903
6765,-0.57758224
6766,-0.42640398
6767,-0.24153857
6768,-0.29990283
6769,-0.23285641
6770,-0.16665437
6771,-0.16778005
6772,-0.22606564
6773,-0.033829763
6774,-0.091845811
6775,-0.10783691
6776,0.012430121
6777,0.0087887511
6778,0.13536591
6779,0.11715629
6780,-0.001961898
6781,0.15090682
6782,0.090115532
6783,0.18195675
6784,0.11740211
6785,0.3004244
6786,0.39188205
6787,0.4019147
6788,0.43046239
6789,0.40666469
6790,0.54321
6791,0.55989075
6792,0.5297261
6793,0.53984827
6794,0.68314472
6795,0.5855253
6796,0.73705409
6797,0.52879474
6798,0.3895254
6799,0.40099651
6800,0.41857478
6801,0.45111686
6802,0.45068481
6803,0.55263517
6804,0.48097082
6805,0.44995928
6806,0.44558714
6807,0.29426047
6808,0.23374698
6809,0.26881482
6810,0.23809717
6811,0.31589206
6812,0.38985966
6813,0.42461387
6814,0.26276995
6815,0.17524475
6816,0.26951942
6817,0.30616273
6818,0.18566825
6819,0.18484815
6820,0.25212365
6821,0.37290132
6822,0.71421291
6823,1.0620325
6824,1.190075
6825,1.4349882
6826,1.5473163
6827,1.9544261
6828,2.2300509
6829,2.399951
6830,2.1807448
6831,1.8623289
6832,1.6972293
6833,1.2327377
6834,1.0420004
6835,0.72458718
6836,0.066087348
6837,-0.17406161
6838,-0.15736415
6839,-0.25722836
6840,-0.32260303
6841,-0.35008558
6842,-0.26817206
6843,-0.23951853
6844,-0.29855187
6845,-0.29278945
6846,-0.17049979
6847,-0.18110079
6848,-0.31513096
6849,-0.3325024
6850,-0.089673179
6851,0.37870171
6852,1.454319
6853,1.5331198
6854,1.3983858
6855,1.7068272
6856,1.3385315
6857,0.733911
6858,-0.30058531
6859,-0.22360552
6860,-0.69539923
6861,-2.0008649
6862,-2.6317933
6863,-3.3096623
6864,-3.6957857
6865,-3.5143872
6866,-3.0958049
6867,-1.9830469
6868,-1.1244418
6869,-0.84165015
6870,-0.36466335
6871,-0.0014020092
6872,-0.019985354
6873,0.023048798
6874,0.10571143
6875,-0.038620262
6876,0.1288401
6877,0.16927038
6878,0.16215689
6879,0.059635241
6880,0.21488956
6881,0.12881461
6882,0.037699842
6883,0.09418588
6884,0.15749332
6885,0.082526701
6886,0.021673644
6887,0.030732027
6888,0.072754053
6889,0.073090283
6890,0.062655868
6891,0.038713679
6892,0.0027750787
6893,-0.0070151191
6894,0.10210396
6895,0.11865287
6896,-0.00070956822
6897,-0.057169993
6898,0.10924887
6899,0.10704586
6900,0.11118801
6901,0.23236416
6902,0.17411022
6903,0.30340929
6904,0.36116636
6905,0.20342115
6906,0.31430842
6907,0.32745863
6908,0.39559731
6909,0.40742592
6910,0.38840212
6911,0.34951355
6912,0.37679381
6913,0.42590929
6914,0.40041042
6915,0.41863674
6916,0.40324547
6917,0.41548239
6918,0.30339543
6919,0.31711989
6920,0.3112929
6921,0.34569511
6922,0.25711654
6923,0.18670332
6924,0.34942692
6925,0.39840382
6926,0.38565369
6927,0.36402212
6928,0.39734204
6929,0.43708645
6930,0.3393584
6931,0.41206427
6932,0.44889188
6933,0.59112201
6934,0.56744708
6935,0.27606811
6936,0.36236832
6937,0.52457008
6938,0.48341201
6939,0.63083851
6940,0.6032006
6941,0.57145463
6942,0.45679147
6943,0.3952822
6944,0.48637297
6945,0.52845272
6946,0.4245975
6947,0.4709197
6948,0.51050283
6949,0.4790211
6950,0.42743072
6951,0.45596264
6952,0.6057269
6953,0.87832353
6954,0.93857448
6955,1.0237718
6956,1.3713441
6957,1.5534944
6958,1.8455145
6959,1.9647878
6960,1.973784
6961,1.8853201
6962,1.6019487
6963,1.5557129
6964,1.2676938
6965,0.88135873
6966,0.66731569
6967,0.2607513
6968,-0.24962158
6969,-0.31971025
6970,-0.43501598
6971,-0.41281525
6972,-0.42066465
6973,-0.58916408
6974,-0.51245156
6975,-0.5486057
6976,-0.72887865
6977,-0.54410111
6978,-0.59075118
6979,-0.55776601
6980,-0.53202126
6981,-0.54489517
6982,-0.53799723
6983,-0.46689758
6984,-0.53587557
6985,-0.43096084
6986,-0.19411509
6987,0.33747064
6988,1.060959
6989,1.1575028
6990,0.85910205
6991,0.22876558
6992,-0.73635467
6993,-1.5407437
6994,-1.8400319
6995,-1.9371404
6996,-1.3060067
6997,-1.4371505
6998,-2.0222007
6999,-3.1768335
7000,-1.2277594
7001,-3.2861576
7002,-4.0213751
7003,-4.681
7004,-4.0543767
7005,-2.8484134
7006,-1.9718769
7007,-1.5533419
7008,-0.73976967
7009,-0.24952792
7010,-0.24106219
7011,-0.22594126
7012,-0.24211156
7013,-0.13453778
7014,-0.13554858
7015,-0.22445644
7016,-0.26305653
7017,-0.20349192
7018,-0.21084231
7019,-0.24089787
7020,-0.37940199
7021,-0.34088977
7022,-0.34684971
7023,-0.37825214
7024,-0.35476916
7025,-0.45518246
7026,-0.41265306
7027,-0.61587201
7028,-0.59326038
7029,-0.71257731
7030,-0.77619202
7031,-0.84025617
7032,-0.8584073
7033,-0.71511994
7034,-0.86533701
7035,-0.77926799
7036,-0.82465446
7037,-0.87324388
7038,-0.83367105
7039,-0.75357017
7040,-0.66427349
7041,-0.57703937
7042,-0.32828062
7043,-0.21946834
7044,-0.131827
7045,-0.055075393
7046,0.023814419
7047,0.04738258
7048,0.048000274
7049,0.16110342
7050,0.17152045
7051,0.16480965
7052,0.11281047
7053,0.21640349
7054,0.15398013
7055,0.21603558
7056,0.25529161
7057,0.20001702
7058,0.2390164
7059,0.20589034
7060,0.28661855
7061,0.29561763
7062,0.27886488
7063,0.30594777
7064,0.32401453
7065,0.2673894
7066,0.34360864
7067,0.41807589
7068,0.42625885
7069,0.45587042
7070,0.51197813
7071,0.4539034
7072,0.56572072
7073,0.636943
7074,0.71217775
7075,0.70797953
7076,0.60997214
7077,0.60351655
7078,0.63146153
7079,0.59933243
7080,0.57428146
7081,0.59072415
7082,0.49526459
7083,0.49051705
7084,0.5451924
7085,0.45760556
7086,0.49144645
7087,0.4072186
7088,0.44243302
7089,0.39855099
7090,0.36649088
7091,0.39849693
7092,0.34145259
7093,0.36548077
7094,0.35561001
7095,0.38302319
7096,0.40455277
7097,0.54407555
7098,0.74816301
7099,0.93648489
7100,1.0684685
7101,1.2227832
7102,1.3365782
7103,1.6316859
7104,1.8887178
7105,1.8590194
7106,1.8919179
7107,1.6934637
7108,1.5817616
7109,1.2635078
7110,0.97943831
7111,0.74996163
7112,0.26019581
7113,-0.05181838
7114,-0.10673436
7115,-0.21286752
7116,-0.18100471
7117,-0.23691684
7118,-0.24097642
7119,-0.2091978
7120,-0.17692191
7121,-0.16545856
7122,-0.16163486
7123,-0.21371257
7124,-0.20063199
7125,-0.21946088
7126,-0.21164628
7127,-0.12618302
7128,0.00086891427
7129,0.38263479
7130,1.0619239
7131,1.1019643
7132,1.112123
7133,1.1300149
7134,0.79151423
7135,0.26194714
7136,0.21634899
7137,0.53638027
7138,0.55284528
7139,-1.8083547
7140,-1.3353913
7141,-3.4690114
7142,-3.8148856
7143,-4.3905039
7144,-4.0062885
7145,-3.284897
7146,-2.1571032
7147,-1.3821288
7148,-1.03015
7149,-0.57765739
7150,-0.15224682
7151,-0.34734899
7152,-0.30394852
7153,-0.27271367
7154,-0.203822
7155,-0.13090709
7156,-0.086812343
7157,-0.15665255
7158,-0.13258896
7159,-0.1037243
7160,0.10060985
7161,0.21012806
7162,0.10828974
7163,-0.028555807
7164,-0.14063993
7165,-0.051812
7166,-0.10726264
7167,-0.1642657
7168,-0.13531107
7169,-0.0090365558
7170,0.074634396
7171,0.17290288
7172,0.45899131
7173,0.45768877
7174,0.057334326
7175,-0.24982739
7176,-0.14258171
7177,0.25803288
7178,0.27963887
7179,0.073787862
7180,0.18502643
7181,0.13427193
7182,0.2041662
7183,0.39188259
7184,0.30839743
7185,0.31691497
7186,0.37525025
7187,0.31924646
7188,0.12954302
7189,0.050297033
7190,0.17674269
7191,0.21832419
7192,0.20085554
7193,0.10617549
7194,0.086559861
7195,0.30675708
7196,0.25918214
7197,0.043706013
7198,-0.060893229
7199,-0.18929039
7200,-0.23510996
7201,-0.10876535
7202,0.0091863981
7203,0.0067955482
7204,0.10985631
7205,0.096632524
7206,0.022157991
7207,0.0065852455
7208,0.031846974
7209,0.22644666
7210,0.31114423
7211,0.28821453
7212,0.22024298
7213,0.26442975
7214,0.38136609
7215,0.46466154
7216,0.60660841
7217,0.65025523
7218,0.50635666
7219,0.39941547
7220,0.33802357
7221,0.29915944
7222,0.34226667
7223,0.36727393
7224,0.26878788
7225,0.25760839
7226,0.34000499
7227,0.3459793
7228,0.3413101
7229,0.46761456
7230,0.35803673
7231,0.3601752
7232,0.48669179
7233,0.39136373
7234,0.54366579
7235,0.8015517
7236,0.97278985
7237,0.9470379
7238,1.1331361
7239,1.3726526
7240,1.7330941
7241,2.0773572
7242,1.9415401
7243,2.0670867
7244,1.9659311
7245,1.7493057
7246,1.5260853
7247,1.1551629
7248,1.0690593
7249,0.72183501
7250,0.54853089
7251,0.10818012
7252,-0.14292171
7253,-0.26450656
7254,-0.37677251
7255,-0.35424141
7256,-0.20604847
7257,-0.28397892
7258,-0.41070243
7259,-0.41723531
7260,-0.49329191
7261,-0.29261544
7262,-0.39461907
7263,-0.34178127
7264,-0.232109
7265,-0.35916016
7266,-0.27809835
7267,0.083357264
7268,0.48794694
7269,1.0580669
7270,1.0964763
7271,0.72558295
7272,0.34455783
7273,-0.70564555
7274,-1.3966628
7275,-1.5982536
7276,-1.1323195
7277,-0.52638498
7278,-0.49185942
7279,-2.2004852
7280,-0.57057541
7281,-3.0182942
7282,-4.2551539
7283,-4.170565
7284,-3.8254951
7285,-2.95522
7286,-1.7560359
7287,-1.5059988
7288,-1.1146806
7289,-0.4140779
7290,-0.20999417
7291,-0.25282048
7292,-0.17914872
7293,-0.25539908
7294,-0.22658879
7295,-0.23999936
7296,-0.25178232
7297,-0.31043199
7298,-0.2903524
7299,-0.28516817
7300,-0.31871756
7301,-0.33207054
7302,-0.43625125
7303,-0.37975806
7304,-0.41561133
7305,-0.51026114
7306,-0.54042029
7307,-0.61986552
7308,-0.69587977
7309,-0.67650297
7310,-0.70446012
7311,-0.7256848
7312,-0.81261656
7313,-0.86218521
7314,-0.75484832
7315,-0.89279999
7316,-0.90710615
7317,-0.78343331
7318,-0.83131897
7319,-0.75454105
7320,-0.69783003
7321,-0.68814467
7322,-0.62024079
7323,-0.58111261
7324,-0.39025569
7325,-0.39671042
7326,-0.29867569
7327,-0.048376735
7328,-0.15940151
7329,-0.012299041
7330,0.02722176
7331,-0.021089424
7332,0.023121208
7333,0.075499351
7334,0.11885225
7335,0.067284797
7336,0.12700796
7337,0.20118456
7338,0.20573953
7339,0.20752071
7340,0.26309847
7341,0.23497068
7342,0.26322962
7343,0.2723871
7344,0.38315375
7345,0.38223104
7346,0.26814225
7347,0.43351153
7348,0.42796689
7349,0.50722049
7350,0.54612859
7351,0.51957909
7352,0.63420662
7353,0.52192862
7354,0.61671368
7355,0.61024196
7356,0.49113903
7357,0.57575917
7358,0.62301987
7359,0.57171471
7360,0.62310348
7361,0.49406835
7362,0.53078937
7363,0.58982918
7364,0.52312625
7365,0.4926863
7366,0.47606131
7367,0.51815695
7368,0.43330936
7369,0.4664067
7370,0.47485783
7371,0.45152257
7372,0.43376607
7373,0.43435107
7374,0.54031828
7375,0.72257108
7376,0.82642661
7377,1.0485538
7378,1.1122542
7379,1.3402777
7380,1.5609974
7381,1.700551
7382,1.9240834
7383,1.835127
7384,1.8735575
7385,1.7434677
7386,1.5311838
7387,1.4211214
7388,1.1582272
7389,0.84444575
7390,0.45639106
7391,0.094326873
7392,-0.11086729
7393,-0.29659388
7394,-0.37012404
7395,-0.38410214
7396,-0.42196859
7397,-0.37908979
7398,-0.33193441
7399,-0.37992519
7400,-0.33559634
7401,-0.36886029
7402,-0.35406547
7403,-0.33758831
7404,-0.39524759
7405,-0.43247783
7406,-0.34153063
7407,-0.3444394
7408,-0.15449115
7409,0.24259011
7410,0.80757266
7411,0.75169411
7412,0.81610627
7413,0.91104374
7414,0.95894504
7415,0.7647448
7416,0.87664661
7417,1.2841508
7418,1.9247869
7419,0.48118142
7420,-0.42019446
7421,-2.2895413
7422,-3.230651
7423,-3.7655611
7424,-3.7326101
7425,-3.5870565
7426,-2.8350787
7427,-1.8828295
7428,-1.6274844
7429,-1.3961483
7430,-0.81736983
7431,-0.60096869
7432,-0.59909722
7433,-0.55673279
7434,-0.56251778
7435,-0.48096527
7436,-0.5166508
7437,-0.47945338
7438,-0.46914073
7439,-0.51085888
7440,-0.49146669
7441,-0.56916167
7442,-0.5691976
7443,-0.55572236
7444,-0.56069247
7445,-0.63924383
7446,-0.67472275
7447,-0.65707615
7448,-0.6976312
7449,-0.7186231
